/////////////////////////////////////////////////////////////////////////////////
/// Profile Data Ascii Dump (XRD)                                             ///
/////////////////////////////////////////////////////////////////////////////////

  Group     : Swayze
  Data      : GDS157
  File Name : GDS157.RAW

# Profile Datafile
          comment             = Clinoptilolite/Ripidolite 
          date & time         = 08-04-28 07:18:27 

# Measurement Condition
    X-ray tube
          target              = Cu 
          voltage             = 40.0 (kV)
          current             = 30.0 (mA)
    Slits
          divergence slit     = 2.00000 (deg) 
          scatter slit        = 2.00000 (deg) 
          receiving slit      = 0.15000 (mm)  
    Scanning
          drive axis          = Theta-2Theta 
          scan range          =    4.000 -   65.000 
          scan mode           = Continuous Scan 
          scan speed          =   2.0000 (deg/min) 
          sampling pitch      =   0.0200 (deg) 
          preset time         =   0.60 (sec) 

# Data      [ Total No. = 3051 ]
  <2Theta>   <   I   >
     4.0000       172
     4.0200       194
     4.0400       192
     4.0600       198
     4.0800       184
     4.1000       194
     4.1200       194
     4.1400       182
     4.1600       194
     4.1800       184
     4.2000       166
     4.2200       188
     4.2400       176
     4.2600       186
     4.2800       154
     4.3000       168
     4.3200       182
     4.3400       164
     4.3600       194
     4.3800       150
     4.4000       148
     4.4200       154
     4.4400       198
     4.4600       180
     4.4800       178
     4.5000       168
     4.5200       162
     4.5400       168
     4.5600       158
     4.5800       168
     4.6000       124
     4.6200       160
     4.6400       162
     4.6600       158
     4.6800       160
     4.7000       158
     4.7200       166
     4.7400       174
     4.7600       166
     4.7800       160
     4.8000       166
     4.8200       154
     4.8400       144
     4.8600       160
     4.8800       194
     4.9000       168
     4.9200       172
     4.9400       176
     4.9600       172
     4.9800       170
     5.0000       162
     5.0200       170
     5.0400       152
     5.0600       150
     5.0800       152
     5.1000       140
     5.1200       178
     5.1400       172
     5.1600       156
     5.1800       174
     5.2000       134
     5.2200       158
     5.2400       144
     5.2600       176
     5.2800       144
     5.3000       128
     5.3200       168
     5.3400       154
     5.3600       160
     5.3800       156
     5.4000       178
     5.4200       162
     5.4400       184
     5.4600       150
     5.4800       140
     5.5000       162
     5.5200       178
     5.5400       174
     5.5600       164
     5.5800       184
     5.6000       164
     5.6200       194
     5.6400       172
     5.6600       182
     5.6800       180
     5.7000       202
     5.7200       186
     5.7400       220
     5.7600       186
     5.7800       188
     5.8000       198
     5.8200       210
     5.8400       214
     5.8600       230
     5.8800       220
     5.9000       212
     5.9200       252
     5.9400       254
     5.9600       264
     5.9800       266
     6.0000       304
     6.0200       328
     6.0400       372
     6.0600       374
     6.0800       438
     6.1000       504
     6.1200       538
     6.1400       582
     6.1600       562
     6.1800       478
     6.2000       406
     6.2200       334
     6.2400       274
     6.2600       244
     6.2800       186
     6.3000       186
     6.3200       180
     6.3400       170
     6.3600       160
     6.3800       176
     6.4000       138
     6.4200       152
     6.4400       158
     6.4600       150
     6.4800       166
     6.5000       132
     6.5200       138
     6.5400       152
     6.5600       158
     6.5800       126
     6.6000       128
     6.6200       140
     6.6400       136
     6.6600       138
     6.6800       128
     6.7000       136
     6.7200       140
     6.7400       128
     6.7600       126
     6.7800       132
     6.8000       102
     6.8200       134
     6.8400       118
     6.8600       130
     6.8800       126
     6.9000       128
     6.9200       136
     6.9400       134
     6.9600       110
     6.9800       110
     7.0000       114
     7.0200       114
     7.0400       122
     7.0600       138
     7.0800       122
     7.1000       114
     7.1200       122
     7.1400       106
     7.1600       122
     7.1800       116
     7.2000       122
     7.2200       118
     7.2400       104
     7.2600       128
     7.2800       100
     7.3000       114
     7.3200       112
     7.3400        98
     7.3600       122
     7.3800       110
     7.4000       144
     7.4200       106
     7.4400       112
     7.4600       118
     7.4800       124
     7.5000       132
     7.5200       116
     7.5400       112
     7.5600       118
     7.5800       112
     7.6000       114
     7.6200       114
     7.6400       120
     7.6600        84
     7.6800        96
     7.7000       124
     7.7200       122
     7.7400       130
     7.7600       118
     7.7800       122
     7.8000       130
     7.8200       118
     7.8400       126
     7.8600       104
     7.8800       118
     7.9000       102
     7.9200       128
     7.9400       112
     7.9600       126
     7.9800       110
     8.0000       106
     8.0200       118
     8.0400       126
     8.0600       118
     8.0800       116
     8.1000       106
     8.1200       114
     8.1400       132
     8.1600       110
     8.1800        90
     8.2000       118
     8.2200       124
     8.2400       110
     8.2600       118
     8.2800       114
     8.3000       136
     8.3200       118
     8.3400        90
     8.3600       108
     8.3800       100
     8.4000       130
     8.4200       102
     8.4400       140
     8.4600       124
     8.4800       100
     8.5000       120
     8.5200       136
     8.5400       124
     8.5600        96
     8.5800       118
     8.6000        98
     8.6200       122
     8.6400       116
     8.6600       110
     8.6800       118
     8.7000       106
     8.7200       110
     8.7400       126
     8.7600       124
     8.7800       112
     8.8000       114
     8.8200       122
     8.8400       104
     8.8600       100
     8.8800       110
     8.9000       122
     8.9200       130
     8.9400       112
     8.9600       100
     8.9800        98
     9.0000       100
     9.0200       104
     9.0400        94
     9.0600       116
     9.0800       124
     9.1000       130
     9.1200       122
     9.1400       108
     9.1600        94
     9.1800       110
     9.2000       110
     9.2200        94
     9.2400       122
     9.2600       100
     9.2800       112
     9.3000        88
     9.3200       116
     9.3400       114
     9.3600       118
     9.3800       122
     9.4000       112
     9.4200       112
     9.4400       116
     9.4600       100
     9.4800       104
     9.5000       116
     9.5200       120
     9.5400       112
     9.5600       114
     9.5800       120
     9.6000       128
     9.6200        98
     9.6400       100
     9.6600       114
     9.6800        80
     9.7000       104
     9.7200        96
     9.7400       114
     9.7600       114
     9.7800       114
     9.8000        98
     9.8200       116
     9.8400       110
     9.8600        88
     9.8800       134
     9.9000       110
     9.9200       106
     9.9400       114
     9.9600       106
     9.9800        90
    10.0000       112
    10.0200       100
    10.0400       102
    10.0600       110
    10.0800       122
    10.1000        92
    10.1200       108
    10.1400       100
    10.1600       106
    10.1800       106
    10.2000       100
    10.2200       110
    10.2400       100
    10.2600       102
    10.2800       102
    10.3000        86
    10.3200       118
    10.3400        92
    10.3600       100
    10.3800        98
    10.4000        92
    10.4200       102
    10.4400       100
    10.4600       102
    10.4800        78
    10.5000        90
    10.5200        80
    10.5400        88
    10.5600        96
    10.5800        96
    10.6000       120
    10.6200       104
    10.6400        98
    10.6600        90
    10.6800        94
    10.7000        70
    10.7200        78
    10.7400        98
    10.7600        84
    10.7800        94
    10.8000       100
    10.8200       100
    10.8400        84
    10.8600       102
    10.8800        88
    10.9000        88
    10.9200       100
    10.9400       112
    10.9600        80
    10.9800        92
    11.0000        96
    11.0200        86
    11.0400        84
    11.0600        94
    11.0800        90
    11.1000        96
    11.1200        66
    11.1400        88
    11.1600       104
    11.1800       118
    11.2000       100
    11.2200        90
    11.2400        92
    11.2600        86
    11.2800        90
    11.3000        92
    11.3200       102
    11.3400        82
    11.3600        80
    11.3800        98
    11.4000        86
    11.4200       100
    11.4400       104
    11.4600        94
    11.4800        98
    11.5000        86
    11.5200       102
    11.5400        94
    11.5600        92
    11.5800        96
    11.6000       102
    11.6200       110
    11.6400       102
    11.6600       100
    11.6800        94
    11.7000       102
    11.7200       112
    11.7400        98
    11.7600        98
    11.7800       104
    11.8000       134
    11.8200       144
    11.8400       120
    11.8600       126
    11.8800       140
    11.9000       172
    11.9200       178
    11.9400       174
    11.9600       186
    11.9800       176
    12.0000       202
    12.0200       230
    12.0400       230
    12.0600       242
    12.0800       242
    12.1000       290
    12.1200       300
    12.1400       334
    12.1600       406
    12.1800       444
    12.2000       480
    12.2200       556
    12.2400       682
    12.2600       746
    12.2800       908
    12.3000      1108
    12.3200      1240
    12.3400      1588
    12.3600      1744
    12.3800      1764
    12.4000      1860
    12.4200      1656
    12.4400      1332
    12.4600       988
    12.4800       746
    12.5000       584
    12.5200       420
    12.5400       336
    12.5600       272
    12.5800       184
    12.6000       194
    12.6200       144
    12.6400       122
    12.6600       116
    12.6800       108
    12.7000       100
    12.7200       106
    12.7400        80
    12.7600       102
    12.7800        82
    12.8000        80
    12.8200        86
    12.8400        62
    12.8600        74
    12.8800        62
    12.9000        64
    12.9200        86
    12.9400        68
    12.9600        90
    12.9800        70
    13.0000        84
    13.0200        64
    13.0400        76
    13.0600        90
    13.0800        96
    13.1000        78
    13.1200        76
    13.1400        68
    13.1600        62
    13.1800        78
    13.2000        68
    13.2200        72
    13.2400        66
    13.2600        54
    13.2800        72
    13.3000        70
    13.3200        66
    13.3400        72
    13.3600        82
    13.3800        80
    13.4000        62
    13.4200        64
    13.4400        54
    13.4600        70
    13.4800        72
    13.5000        80
    13.5200        54
    13.5400        70
    13.5600        76
    13.5800        82
    13.6000        62
    13.6200        80
    13.6400        74
    13.6600        62
    13.6800        76
    13.7000        56
    13.7200        74
    13.7400        72
    13.7600        70
    13.7800        66
    13.8000        88
    13.8200        78
    13.8400        70
    13.8600        68
    13.8800        74
    13.9000        72
    13.9200        58
    13.9400        62
    13.9600        70
    13.9800        66
    14.0000        68
    14.0200        70
    14.0400        80
    14.0600        66
    14.0800        60
    14.1000        66
    14.1200        72
    14.1400        58
    14.1600        62
    14.1800        62
    14.2000        68
    14.2200        34
    14.2400        70
    14.2600        64
    14.2800        62
    14.3000        80
    14.3200        56
    14.3400        64
    14.3600        60
    14.3800        58
    14.4000        54
    14.4200        52
    14.4400        56
    14.4600        54
    14.4800        58
    14.5000        58
    14.5200        56
    14.5400        66
    14.5600        72
    14.5800        62
    14.6000        48
    14.6200        64
    14.6400        54
    14.6600        64
    14.6800        54
    14.7000        72
    14.7200        66
    14.7400        70
    14.7600        62
    14.7800        58
    14.8000        76
    14.8200        54
    14.8400        68
    14.8600        58
    14.8800        56
    14.9000        72
    14.9200        66
    14.9400        62
    14.9600        70
    14.9800        70
    15.0000        60
    15.0200        64
    15.0400        70
    15.0600        58
    15.0800        66
    15.1000        58
    15.1200        64
    15.1400        66
    15.1600        70
    15.1800        54
    15.2000        92
    15.2200        72
    15.2400        62
    15.2600        58
    15.2800        60
    15.3000        72
    15.3200        56
    15.3400        58
    15.3600        72
    15.3800        54
    15.4000        60
    15.4200        58
    15.4400        54
    15.4600        56
    15.4800        54
    15.5000        66
    15.5200        68
    15.5400        60
    15.5600        60
    15.5800        68
    15.6000        58
    15.6200        50
    15.6400        60
    15.6600        52
    15.6800        58
    15.7000        72
    15.7200        56
    15.7400        58
    15.7600        70
    15.7800        54
    15.8000        62
    15.8200        44
    15.8400        62
    15.8600        54
    15.8800        54
    15.9000        64
    15.9200        46
    15.9400        66
    15.9600        66
    15.9800        74
    16.0000        48
    16.0200        68
    16.0400        54
    16.0600        48
    16.0800        54
    16.1000        58
    16.1200        56
    16.1400        50
    16.1600        52
    16.1800        66
    16.2000        74
    16.2200        60
    16.2400        60
    16.2600        50
    16.2800        62
    16.3000        50
    16.3200        64
    16.3400        62
    16.3600        64
    16.3800        52
    16.4000        64
    16.4200        72
    16.4400        54
    16.4600        78
    16.4800        64
    16.5000        64
    16.5200        68
    16.5400        62
    16.5600        78
    16.5800        50
    16.6000        74
    16.6200        66
    16.6400        56
    16.6600        44
    16.6800        62
    16.7000        52
    16.7200        60
    16.7400        64
    16.7600        70
    16.7800        72
    16.8000        62
    16.8200        70
    16.8400        64
    16.8600        58
    16.8800        56
    16.9000        64
    16.9200        60
    16.9400        64
    16.9600        50
    16.9800        60
    17.0000        54
    17.0200        48
    17.0400        72
    17.0600        78
    17.0800        62
    17.1000        76
    17.1200        58
    17.1400        66
    17.1600        54
    17.1800        50
    17.2000        60
    17.2200        56
    17.2400        62
    17.2600        70
    17.2800        52
    17.3000        66
    17.3200        52
    17.3400        66
    17.3600        60
    17.3800        50
    17.4000        58
    17.4200        48
    17.4400        40
    17.4600        64
    17.4800        56
    17.5000        60
    17.5200        46
    17.5400        54
    17.5600        56
    17.5800        54
    17.6000        52
    17.6200        58
    17.6400        56
    17.6600        70
    17.6800        58
    17.7000        72
    17.7200        64
    17.7400        62
    17.7600        50
    17.7800        60
    17.8000        72
    17.8200        68
    17.8400        62
    17.8600        58
    17.8800        42
    17.9000        58
    17.9200        68
    17.9400        44
    17.9600        52
    17.9800        50
    18.0000        46
    18.0200        62
    18.0400        54
    18.0600        72
    18.0800        72
    18.1000        64
    18.1200        62
    18.1400        66
    18.1600        62
    18.1800        82
    18.2000        62
    18.2200       102
    18.2400        68
    18.2600        76
    18.2800        86
    18.3000        76
    18.3200       106
    18.3400       108
    18.3600       118
    18.3800       142
    18.4000       102
    18.4200       146
    18.4400       156
    18.4600       166
    18.4800       178
    18.5000       240
    18.5200       266
    18.5400       302
    18.5600       364
    18.5800       424
    18.6000       566
    18.6200       660
    18.6400       800
    18.6600       860
    18.6800       878
    18.7000       830
    18.7200       676
    18.7400       616
    18.7600       474
    18.7800       384
    18.8000       344
    18.8200       230
    18.8400       188
    18.8600       156
    18.8800       126
    18.9000       106
    18.9200       112
    18.9400        92
    18.9600        94
    18.9800       100
    19.0000       108
    19.0200       116
    19.0400       104
    19.0600       112
    19.0800        88
    19.1000        84
    19.1200        92
    19.1400       104
    19.1600       102
    19.1800        82
    19.2000        92
    19.2200        84
    19.2400        88
    19.2600        74
    19.2800        94
    19.3000        88
    19.3200        72
    19.3400        78
    19.3600        86
    19.3800        70
    19.4000        64
    19.4200        66
    19.4400        66
    19.4600        64
    19.4800        76
    19.5000        76
    19.5200        76
    19.5400        82
    19.5600        74
    19.5800        68
    19.6000        72
    19.6200        56
    19.6400        70
    19.6600        66
    19.6800        66
    19.7000        60
    19.7200        62
    19.7400        76
    19.7600        62
    19.7800        60
    19.8000        66
    19.8200        68
    19.8400        62
    19.8600        80
    19.8800        72
    19.9000        56
    19.9200        64
    19.9400        74
    19.9600        68
    19.9800        70
    20.0000        60
    20.0200        62
    20.0400        58
    20.0600        82
    20.0800        68
    20.1000        72
    20.1200        72
    20.1400        76
    20.1600        68
    20.1800        68
    20.2000        68
    20.2200        60
    20.2400        64
    20.2600        78
    20.2800        68
    20.3000        68
    20.3200        64
    20.3400        66
    20.3600        68
    20.3800        64
    20.4000        68
    20.4200        62
    20.4400        60
    20.4600        56
    20.4800        64
    20.5000        56
    20.5200        60
    20.5400        48
    20.5600        58
    20.5800        60
    20.6000        56
    20.6200        76
    20.6400        62
    20.6600        72
    20.6800        64
    20.7000        80
    20.7200        64
    20.7400        70
    20.7600        70
    20.7800        50
    20.8000        64
    20.8200        70
    20.8400        68
    20.8600        66
    20.8800        66
    20.9000        58
    20.9200        44
    20.9400        58
    20.9600        62
    20.9800        50
    21.0000        54
    21.0200        64
    21.0400        48
    21.0600        62
    21.0800        66
    21.1000        52
    21.1200        62
    21.1400        60
    21.1600        62
    21.1800        56
    21.2000        50
    21.2200        62
    21.2400        72
    21.2600        66
    21.2800        74
    21.3000        50
    21.3200        64
    21.3400        48
    21.3600        60
    21.3800        56
    21.4000        56
    21.4200        60
    21.4400        54
    21.4600        42
    21.4800        62
    21.5000        52
    21.5200        70
    21.5400        54
    21.5600        60
    21.5800        46
    21.6000        68
    21.6200        58
    21.6400        62
    21.6600        58
    21.6800        60
    21.7000        62
    21.7200        74
    21.7400        54
    21.7600        46
    21.7800        62
    21.8000        56
    21.8200        56
    21.8400        56
    21.8600        60
    21.8800        52
    21.9000        50
    21.9200        44
    21.9400        66
    21.9600        42
    21.9800        44
    22.0000        66
    22.0200        60
    22.0400        48
    22.0600        52
    22.0800        48
    22.1000        40
    22.1200        68
    22.1400        70
    22.1600        48
    22.1800        64
    22.2000        60
    22.2200        52
    22.2400        54
    22.2600        62
    22.2800        62
    22.3000        60
    22.3200        60
    22.3400        56
    22.3600        52
    22.3800        54
    22.4000        54
    22.4200        48
    22.4400        46
    22.4600        74
    22.4800        52
    22.5000        54
    22.5200        70
    22.5400        54
    22.5600        80
    22.5800        62
    22.6000        48
    22.6200        58
    22.6400        56
    22.6600        56
    22.6800        54
    22.7000        52
    22.7200        42
    22.7400        54
    22.7600        34
    22.7800        60
    22.8000        46
    22.8200        48
    22.8400        58
    22.8600        60
    22.8800        54
    22.9000        42
    22.9200        52
    22.9400        42
    22.9600        56
    22.9800        60
    23.0000        68
    23.0200        70
    23.0400        62
    23.0600        56
    23.0800        60
    23.1000        48
    23.1200        44
    23.1400        48
    23.1600        56
    23.1800        64
    23.2000        54
    23.2200        44
    23.2400        56
    23.2600        56
    23.2800        60
    23.3000        46
    23.3200        52
    23.3400        60
    23.3600        34
    23.3800        58
    23.4000        64
    23.4200        52
    23.4400        60
    23.4600        46
    23.4800        44
    23.5000        52
    23.5200        44
    23.5400        62
    23.5600        54
    23.5800        58
    23.6000        58
    23.6200        58
    23.6400        68
    23.6600        64
    23.6800        70
    23.7000        44
    23.7200        58
    23.7400        66
    23.7600        60
    23.7800        64
    23.8000        66
    23.8200        54
    23.8400        54
    23.8600        60
    23.8800        72
    23.9000        58
    23.9200        88
    23.9400        60
    23.9600        72
    23.9800        58
    24.0000        74
    24.0200        76
    24.0400        54
    24.0600        66
    24.0800        66
    24.1000        54
    24.1200        64
    24.1400        64
    24.1600        54
    24.1800        58
    24.2000        62
    24.2200        80
    24.2400        52
    24.2600        74
    24.2800        66
    24.3000        54
    24.3200        74
    24.3400        76
    24.3600        74
    24.3800        56
    24.4000        72
    24.4200        60
    24.4400        70
    24.4600        68
    24.4800        58
    24.5000        78
    24.5200        62
    24.5400        86
    24.5600        94
    24.5800        98
    24.6000        88
    24.6200        98
    24.6400       104
    24.6600       120
    24.6800       120
    24.7000       152
    24.7200       174
    24.7400       178
    24.7600       214
    24.7800       246
    24.8000       280
    24.8200       338
    24.8400       410
    24.8600       520
    24.8800       660
    24.9000       796
    24.9200      1076
    24.9400      1364
    24.9600      1700
    24.9800      1954
    25.0000      2236
    25.0200      2346
    25.0400      2288
    25.0600      2168
    25.0800      1886
    25.1000      1556
    25.1200      1280
    25.1400       998
    25.1600       780
    25.1800       552
    25.2000       430
    25.2200       296
    25.2400       250
    25.2600       162
    25.2800       142
    25.3000       122
    25.3200       110
    25.3400        86
    25.3600        82
    25.3800        74
    25.4000        92
    25.4200        76
    25.4400        54
    25.4600        56
    25.4800        64
    25.5000        66
    25.5200        64
    25.5400        64
    25.5600        42
    25.5800        56
    25.6000        54
    25.6200        64
    25.6400        62
    25.6600        48
    25.6800        54
    25.7000        62
    25.7200        56
    25.7400        44
    25.7600        50
    25.7800        56
    25.8000        54
    25.8200        48
    25.8400        36
    25.8600        52
    25.8800        56
    25.9000        52
    25.9200        50
    25.9400        54
    25.9600        54
    25.9800        42
    26.0000        54
    26.0200        56
    26.0400        40
    26.0600        56
    26.0800        56
    26.1000        40
    26.1200        32
    26.1400        52
    26.1600        46
    26.1800        52
    26.2000        54
    26.2200        44
    26.2400        56
    26.2600        60
    26.2800        42
    26.3000        48
    26.3200        60
    26.3400        48
    26.3600        58
    26.3800        54
    26.4000        44
    26.4200        46
    26.4400        52
    26.4600        58
    26.4800        52
    26.5000        44
    26.5200        46
    26.5400        50
    26.5600        48
    26.5800        48
    26.6000        58
    26.6200        64
    26.6400        52
    26.6600        58
    26.6800        62
    26.7000        52
    26.7200        40
    26.7400        44
    26.7600        44
    26.7800        36
    26.8000        40
    26.8200        46
    26.8400        54
    26.8600        58
    26.8800        50
    26.9000        44
    26.9200        56
    26.9400        40
    26.9600        46
    26.9800        54
    27.0000        54
    27.0200        60
    27.0400        44
    27.0600        38
    27.0800        44
    27.1000        40
    27.1200        48
    27.1400        56
    27.1600        56
    27.1800        48
    27.2000        50
    27.2200        38
    27.2400        48
    27.2600        38
    27.2800        52
    27.3000        44
    27.3200        38
    27.3400        38
    27.3600        46
    27.3800        58
    27.4000        44
    27.4200        48
    27.4400        56
    27.4600        42
    27.4800        44
    27.5000        42
    27.5200        44
    27.5400        58
    27.5600        46
    27.5800        36
    27.6000        46
    27.6200        54
    27.6400        46
    27.6600        46
    27.6800        44
    27.7000        46
    27.7200        42
    27.7400        42
    27.7600        32
    27.7800        44
    27.8000        36
    27.8200        44
    27.8400        42
    27.8600        38
    27.8800        44
    27.9000        38
    27.9200        48
    27.9400        48
    27.9600        66
    27.9800        42
    28.0000        58
    28.0200        46
    28.0400        36
    28.0600        38
    28.0800        30
    28.1000        56
    28.1200        50
    28.1400        58
    28.1600        40
    28.1800        46
    28.2000        60
    28.2200        42
    28.2400        64
    28.2600        50
    28.2800        54
    28.3000        46
    28.3200        44
    28.3400        52
    28.3600        46
    28.3800        54
    28.4000        54
    28.4200        52
    28.4400        50
    28.4600        40
    28.4800        40
    28.5000        38
    28.5200        46
    28.5400        46
    28.5600        54
    28.5800        32
    28.6000        34
    28.6200        46
    28.6400        32
    28.6600        50
    28.6800        46
    28.7000        38
    28.7200        36
    28.7400        48
    28.7600        34
    28.7800        38
    28.8000        52
    28.8200        40
    28.8400        38
    28.8600        58
    28.8800        36
    28.9000        50
    28.9200        34
    28.9400        40
    28.9600        40
    28.9800        36
    29.0000        52
    29.0200        20
    29.0400        36
    29.0600        42
    29.0800        38
    29.1000        54
    29.1200        40
    29.1400        54
    29.1600        42
    29.1800        44
    29.2000        42
    29.2200        40
    29.2400        32
    29.2600        56
    29.2800        28
    29.3000        42
    29.3200        34
    29.3400        44
    29.3600        40
    29.3800        40
    29.4000        56
    29.4200        46
    29.4400        44
    29.4600        34
    29.4800        42
    29.5000        48
    29.5200        34
    29.5400        42
    29.5600        36
    29.5800        38
    29.6000        46
    29.6200        50
    29.6400        40
    29.6600        40
    29.6800        48
    29.7000        52
    29.7200        38
    29.7400        48
    29.7600        44
    29.7800        50
    29.8000        36
    29.8200        30
    29.8400        44
    29.8600        58
    29.8800        54
    29.9000        30
    29.9200        52
    29.9400        50
    29.9600        58
    29.9800        38
    30.0000        48
    30.0200        46
    30.0400        42
    30.0600        58
    30.0800        46
    30.1000        50
    30.1200        48
    30.1400        56
    30.1600        38
    30.1800        46
    30.2000        44
    30.2200        40
    30.2400        38
    30.2600        42
    30.2800        48
    30.3000        36
    30.3200        40
    30.3400        46
    30.3600        38
    30.3800        40
    30.4000        48
    30.4200        40
    30.4400        40
    30.4600        54
    30.4800        34
    30.5000        34
    30.5200        40
    30.5400        36
    30.5600        24
    30.5800        38
    30.6000        48
    30.6200        46
    30.6400        34
    30.6600        34
    30.6800        58
    30.7000        42
    30.7200        46
    30.7400        60
    30.7600        44
    30.7800        50
    30.8000        38
    30.8200        48
    30.8400        34
    30.8600        40
    30.8800        42
    30.9000        46
    30.9200        56
    30.9400        34
    30.9600        56
    30.9800        46
    31.0000        44
    31.0200        44
    31.0400        52
    31.0600        50
    31.0800        44
    31.1000        62
    31.1200        52
    31.1400        44
    31.1600        50
    31.1800        64
    31.2000        90
    31.2200        96
    31.2400        98
    31.2600       104
    31.2800       126
    31.3000       154
    31.3200       162
    31.3400       202
    31.3600       320
    31.3800       356
    31.4000       382
    31.4200       502
    31.4400       556
    31.4600       564
    31.4800       526
    31.5000       480
    31.5200       454
    31.5400       400
    31.5600       320
    31.5800       250
    31.6000       242
    31.6200       164
    31.6400       110
    31.6600       112
    31.6800        68
    31.7000        72
    31.7200        62
    31.7400        52
    31.7600        64
    31.7800        52
    31.8000        46
    31.8200        48
    31.8400        62
    31.8600        32
    31.8800        48
    31.9000        38
    31.9200        46
    31.9400        46
    31.9600        38
    31.9800        52
    32.0000        54
    32.0200        28
    32.0400        52
    32.0600        30
    32.0800        46
    32.1000        42
    32.1200        26
    32.1400        56
    32.1600        34
    32.1800        46
    32.2000        44
    32.2200        54
    32.2400        44
    32.2600        38
    32.2800        34
    32.3000        42
    32.3200        38
    32.3400        40
    32.3600        44
    32.3800        52
    32.4000        50
    32.4200        48
    32.4400        44
    32.4600        50
    32.4800        48
    32.5000        62
    32.5200        36
    32.5400        40
    32.5600        48
    32.5800        44
    32.6000        54
    32.6200        54
    32.6400        44
    32.6600        28
    32.6800        52
    32.7000        40
    32.7200        44
    32.7400        44
    32.7600        42
    32.7800        62
    32.8000        36
    32.8200        40
    32.8400        34
    32.8600        42
    32.8800        54
    32.9000        42
    32.9200        32
    32.9400        38
    32.9600        38
    32.9800        48
    33.0000        30
    33.0200        40
    33.0400        40
    33.0600        42
    33.0800        40
    33.1000        48
    33.1200        36
    33.1400        30
    33.1600        36
    33.1800        46
    33.2000        42
    33.2200        44
    33.2400        48
    33.2600        48
    33.2800        54
    33.3000        54
    33.3200        40
    33.3400        44
    33.3600        64
    33.3800        48
    33.4000        74
    33.4200        68
    33.4400        46
    33.4600        52
    33.4800        56
    33.5000        52
    33.5200        46
    33.5400        62
    33.5600        70
    33.5800        66
    33.6000        56
    33.6200        44
    33.6400        50
    33.6600        40
    33.6800        40
    33.7000        32
    33.7200        46
    33.7400        48
    33.7600        36
    33.7800        40
    33.8000        48
    33.8200        48
    33.8400        52
    33.8600        42
    33.8800        44
    33.9000        44
    33.9200        38
    33.9400        36
    33.9600        34
    33.9800        56
    34.0000        40
    34.0200        44
    34.0400        48
    34.0600        48
    34.0800        44
    34.1000        56
    34.1200        62
    34.1400        48
    34.1600        58
    34.1800        70
    34.2000        76
    34.2200        72
    34.2400        70
    34.2600       116
    34.2800       114
    34.3000       140
    34.3200       176
    34.3400       158
    34.3600       180
    34.3800       172
    34.4000       182
    34.4200       156
    34.4400       134
    34.4600       162
    34.4800       138
    34.5000       124
    34.5200       124
    34.5400       104
    34.5600        96
    34.5800        74
    34.6000        78
    34.6200        66
    34.6400        78
    34.6600        72
    34.6800        58
    34.7000        60
    34.7200        66
    34.7400        60
    34.7600        70
    34.7800        80
    34.8000        84
    34.8200       100
    34.8400       102
    34.8600       114
    34.8800       128
    34.9000       140
    34.9200       152
    34.9400       158
    34.9600       176
    34.9800       156
    35.0000       198
    35.0200       156
    35.0400       184
    35.0600       146
    35.0800       164
    35.1000       150
    35.1200       118
    35.1400       114
    35.1600       108
    35.1800       120
    35.2000        94
    35.2200        66
    35.2400        62
    35.2600        42
    35.2800        52
    35.3000        58
    35.3200        38
    35.3400        56
    35.3600        34
    35.3800        46
    35.4000        50
    35.4200        40
    35.4400        38
    35.4600        44
    35.4800        34
    35.5000        40
    35.5200        32
    35.5400        40
    35.5600        42
    35.5800        40
    35.6000        34
    35.6200        52
    35.6400        38
    35.6600        28
    35.6800        36
    35.7000        50
    35.7200        44
    35.7400        48
    35.7600        40
    35.7800        30
    35.8000        58
    35.8200        48
    35.8400        40
    35.8600        32
    35.8800        54
    35.9000        32
    35.9200        40
    35.9400        34
    35.9600        40
    35.9800        46
    36.0000        38
    36.0200        40
    36.0400        34
    36.0600        60
    36.0800        46
    36.1000        42
    36.1200        44
    36.1400        46
    36.1600        54
    36.1800        44
    36.2000        62
    36.2200        52
    36.2400        42
    36.2600        64
    36.2800        72
    36.3000        74
    36.3200        84
    36.3400        82
    36.3600       120
    36.3800        98
    36.4000       140
    36.4200       130
    36.4400       158
    36.4600       140
    36.4800       168
    36.5000       144
    36.5200       188
    36.5400       174
    36.5600       170
    36.5800       176
    36.6000       148
    36.6200       164
    36.6400       118
    36.6600       108
    36.6800       102
    36.7000       100
    36.7200        86
    36.7400        78
    36.7600        66
    36.7800        52
    36.8000        52
    36.8200        40
    36.8400        46
    36.8600        42
    36.8800        66
    36.9000        46
    36.9200        36
    36.9400        56
    36.9600        48
    36.9800        46
    37.0000        22
    37.0200        56
    37.0400        36
    37.0600        42
    37.0800        42
    37.1000        46
    37.1200        50
    37.1400        56
    37.1600        42
    37.1800        56
    37.2000        66
    37.2200        64
    37.2400        66
    37.2600        68
    37.2800        74
    37.3000        90
    37.3200        82
    37.3400        98
    37.3600       126
    37.3800       102
    37.4000       136
    37.4200       142
    37.4400       138
    37.4600       150
    37.4800       156
    37.5000       156
    37.5200       150
    37.5400       156
    37.5600       126
    37.5800       132
    37.6000        98
    37.6200       116
    37.6400        98
    37.6600        96
    37.6800        66
    37.7000        64
    37.7200        72
    37.7400        62
    37.7600        50
    37.7800        50
    37.8000        44
    37.8200        46
    37.8400        38
    37.8600        48
    37.8800        46
    37.9000        44
    37.9200        50
    37.9400        54
    37.9600        54
    37.9800        42
    38.0000        56
    38.0200        34
    38.0400        54
    38.0600        50
    38.0800        44
    38.1000        42
    38.1200        36
    38.1400        36
    38.1600        42
    38.1800        36
    38.2000        42
    38.2200        36
    38.2400        46
    38.2600        52
    38.2800        30
    38.3000        40
    38.3200        44
    38.3400        42
    38.3600        48
    38.3800        42
    38.4000        40
    38.4200        34
    38.4400        42
    38.4600        30
    38.4800        50
    38.5000        42
    38.5200        40
    38.5400        38
    38.5600        50
    38.5800        38
    38.6000        34
    38.6200        38
    38.6400        28
    38.6600        40
    38.6800        28
    38.7000        44
    38.7200        30
    38.7400        42
    38.7600        40
    38.7800        44
    38.8000        30
    38.8200        32
    38.8400        50
    38.8600        34
    38.8800        38
    38.9000        36
    38.9200        34
    38.9400        52
    38.9600        42
    38.9800        30
    39.0000        34
    39.0200        44
    39.0400        36
    39.0600        38
    39.0800        30
    39.1000        54
    39.1200        44
    39.1400        42
    39.1600        44
    39.1800        42
    39.2000        48
    39.2200        42
    39.2400        48
    39.2600        42
    39.2800        40
    39.3000        50
    39.3200        52
    39.3400        66
    39.3600        64
    39.3800        46
    39.4000        62
    39.4200        68
    39.4400        68
    39.4600        86
    39.4800       106
    39.5000       102
    39.5200        90
    39.5400       100
    39.5600       136
    39.5800       134
    39.6000       132
    39.6200       132
    39.6400       144
    39.6600       144
    39.6800       132
    39.7000       114
    39.7200       130
    39.7400       104
    39.7600       106
    39.7800        86
    39.8000        78
    39.8200        78
    39.8400        68
    39.8600        62
    39.8800        50
    39.9000        52
    39.9200        50
    39.9400        50
    39.9600        50
    39.9800        56
    40.0000        46
    40.0200        34
    40.0400        46
    40.0600        38
    40.0800        44
    40.1000        40
    40.1200        32
    40.1400        40
    40.1600        48
    40.1800        36
    40.2000        34
    40.2200        40
    40.2400        28
    40.2600        28
    40.2800        46
    40.3000        38
    40.3200        38
    40.3400        22
    40.3600        36
    40.3800        42
    40.4000        34
    40.4200        44
    40.4400        30
    40.4600        32
    40.4800        34
    40.5000        26
    40.5200        44
    40.5400        28
    40.5600        38
    40.5800        32
    40.6000        36
    40.6200        60
    40.6400        48
    40.6600        34
    40.6800        30
    40.7000        32
    40.7200        36
    40.7400        42
    40.7600        28
    40.7800        44
    40.8000        52
    40.8200        26
    40.8400        36
    40.8600        42
    40.8800        48
    40.9000        32
    40.9200        42
    40.9400        24
    40.9600        28
    40.9800        36
    41.0000        28
    41.0200        34
    41.0400        26
    41.0600        32
    41.0800        28
    41.1000        46
    41.1200        36
    41.1400        22
    41.1600        28
    41.1800        30
    41.2000        34
    41.2200        36
    41.2400        42
    41.2600        30
    41.2800        36
    41.3000        38
    41.3200        44
    41.3400        22
    41.3600        34
    41.3800        34
    41.4000        30
    41.4200        28
    41.4400        36
    41.4600        44
    41.4800        38
    41.5000        32
    41.5200        32
    41.5400        34
    41.5600        36
    41.5800        38
    41.6000        30
    41.6200        38
    41.6400        40
    41.6600        28
    41.6800        36
    41.7000        34
    41.7200        26
    41.7400        36
    41.7600        38
    41.7800        36
    41.8000        38
    41.8200        32
    41.8400        26
    41.8600        16
    41.8800        30
    41.9000        30
    41.9200        38
    41.9400        36
    41.9600        42
    41.9800        50
    42.0000        34
    42.0200        36
    42.0400        32
    42.0600        26
    42.0800        36
    42.1000        32
    42.1200        32
    42.1400        30
    42.1600        32
    42.1800        26
    42.2000        36
    42.2200        36
    42.2400        28
    42.2600        26
    42.2800        34
    42.3000        32
    42.3200        28
    42.3400        44
    42.3600        34
    42.3800        20
    42.4000        26
    42.4200        28
    42.4400        30
    42.4600        36
    42.4800        34
    42.5000        40
    42.5200        24
    42.5400        34
    42.5600        38
    42.5800        26
    42.6000        42
    42.6200        34
    42.6400        34
    42.6600        28
    42.6800        32
    42.7000        32
    42.7200        44
    42.7400        32
    42.7600        34
    42.7800        24
    42.8000        38
    42.8200        36
    42.8400        32
    42.8600        28
    42.8800        28
    42.9000        46
    42.9200        34
    42.9400        38
    42.9600        36
    42.9800        38
    43.0000        28
    43.0200        38
    43.0400        34
    43.0600        46
    43.0800        32
    43.1000        42
    43.1200        42
    43.1400        44
    43.1600        32
    43.1800        42
    43.2000        28
    43.2200        38
    43.2400        36
    43.2600        42
    43.2800        40
    43.3000        36
    43.3200        44
    43.3400        44
    43.3600        46
    43.3800        36
    43.4000        54
    43.4200        52
    43.4400        48
    43.4600        42
    43.4800        66
    43.5000        48
    43.5200        46
    43.5400        50
    43.5600        56
    43.5800        64
    43.6000        60
    43.6200        64
    43.6400        44
    43.6600        54
    43.6800        54
    43.7000        52
    43.7200        52
    43.7400        38
    43.7600        36
    43.7800        42
    43.8000        42
    43.8200        28
    43.8400        30
    43.8600        50
    43.8800        46
    43.9000        32
    43.9200        32
    43.9400        32
    43.9600        28
    43.9800        34
    44.0000        38
    44.0200        42
    44.0400        28
    44.0600        46
    44.0800        24
    44.1000        36
    44.1200        36
    44.1400        30
    44.1600        28
    44.1800        44
    44.2000        30
    44.2200        48
    44.2400        42
    44.2600        32
    44.2800        54
    44.3000        38
    44.3200        36
    44.3400        48
    44.3600        58
    44.3800        40
    44.4000        62
    44.4200        50
    44.4400        48
    44.4600        52
    44.4800        58
    44.5000        56
    44.5200        60
    44.5400        76
    44.5600       100
    44.5800       116
    44.6000       140
    44.6200       148
    44.6400       186
    44.6600       184
    44.6800       168
    44.7000       184
    44.7200       156
    44.7400       178
    44.7600       154
    44.7800       170
    44.8000       162
    44.8200       178
    44.8400       170
    44.8600       170
    44.8800       178
    44.9000       212
    44.9200       222
    44.9400       218
    44.9600       254
    44.9800       254
    45.0000       260
    45.0200       270
    45.0400       238
    45.0600       274
    45.0800       266
    45.1000       236
    45.1200       198
    45.1400       220
    45.1600       202
    45.1800       152
    45.2000       152
    45.2200       156
    45.2400       130
    45.2600       118
    45.2800       110
    45.3000        72
    45.3200        84
    45.3400        84
    45.3600        72
    45.3800        44
    45.4000        54
    45.4200        50
    45.4400        50
    45.4600        56
    45.4800        26
    45.5000        38
    45.5200        40
    45.5400        26
    45.5600        28
    45.5800        50
    45.6000        46
    45.6200        34
    45.6400        40
    45.6600        42
    45.6800        46
    45.7000        48
    45.7200        24
    45.7400        28
    45.7600        36
    45.7800        46
    45.8000        26
    45.8200        42
    45.8400        30
    45.8600        30
    45.8800        30
    45.9000        36
    45.9200        32
    45.9400        36
    45.9600        30
    45.9800        34
    46.0000        26
    46.0200        30
    46.0400        36
    46.0600        28
    46.0800        32
    46.1000        24
    46.1200        28
    46.1400        32
    46.1600        28
    46.1800        32
    46.2000        38
    46.2200        40
    46.2400        40
    46.2600        32
    46.2800        30
    46.3000        24
    46.3200        38
    46.3400        34
    46.3600        32
    46.3800        38
    46.4000        32
    46.4200        30
    46.4400        24
    46.4600        40
    46.4800        48
    46.5000        50
    46.5200        36
    46.5400        38
    46.5600        28
    46.5800        32
    46.6000        26
    46.6200        24
    46.6400        24
    46.6600        26
    46.6800        34
    46.7000        28
    46.7200        36
    46.7400        34
    46.7600        44
    46.7800        26
    46.8000        38
    46.8200        30
    46.8400        40
    46.8600        44
    46.8800        38
    46.9000        30
    46.9200        32
    46.9400        34
    46.9600        36
    46.9800        38
    47.0000        28
    47.0200        20
    47.0400        28
    47.0600        38
    47.0800        36
    47.1000        46
    47.1200        28
    47.1400        26
    47.1600        26
    47.1800        32
    47.2000        28
    47.2200        30
    47.2400        40
    47.2600        26
    47.2800        28
    47.3000        34
    47.3200        20
    47.3400        38
    47.3600        32
    47.3800        30
    47.4000        34
    47.4200        34
    47.4400        40
    47.4600        30
    47.4800        36
    47.5000        32
    47.5200        24
    47.5400        42
    47.5600        36
    47.5800        42
    47.6000        42
    47.6200        36
    47.6400        38
    47.6600        42
    47.6800        32
    47.7000        48
    47.7200        40
    47.7400        34
    47.7600        54
    47.7800        54
    47.8000        64
    47.8200        42
    47.8400        64
    47.8600        48
    47.8800        72
    47.9000        62
    47.9200        76
    47.9400        86
    47.9600       102
    47.9800       112
    48.0000        98
    48.0200       114
    48.0400       116
    48.0600       134
    48.0800       104
    48.1000       130
    48.1200       136
    48.1400       142
    48.1600       132
    48.1800       142
    48.2000        98
    48.2200       104
    48.2400        82
    48.2600        86
    48.2800        92
    48.3000        88
    48.3200        72
    48.3400        60
    48.3600        54
    48.3800        62
    48.4000        56
    48.4200        66
    48.4400        58
    48.4600        44
    48.4800        54
    48.5000        44
    48.5200        42
    48.5400        36
    48.5600        40
    48.5800        44
    48.6000        40
    48.6200        44
    48.6400        32
    48.6600        36
    48.6800        22
    48.7000        36
    48.7200        30
    48.7400        42
    48.7600        32
    48.7800        28
    48.8000        26
    48.8200        36
    48.8400        32
    48.8600        40
    48.8800        34
    48.9000        28
    48.9200        26
    48.9400        28
    48.9600        36
    48.9800        30
    49.0000        42
    49.0200        30
    49.0400        26
    49.0600        34
    49.0800        28
    49.1000        34
    49.1200        36
    49.1400        44
    49.1600        36
    49.1800        40
    49.2000        30
    49.2200        46
    49.2400        30
    49.2600        28
    49.2800        30
    49.3000        30
    49.3200        22
    49.3400        26
    49.3600        44
    49.3800        54
    49.4000        42
    49.4200        40
    49.4400        36
    49.4600        54
    49.4800        58
    49.5000        38
    49.5200        38
    49.5400        58
    49.5600        56
    49.5800        62
    49.6000        58
    49.6200        52
    49.6400        62
    49.6600        62
    49.6800        82
    49.7000        72
    49.7200        74
    49.7400        64
    49.7600        66
    49.7800        68
    49.8000       100
    49.8200        62
    49.8400        76
    49.8600        58
    49.8800        76
    49.9000        72
    49.9200        62
    49.9400        74
    49.9600        60
    49.9800        60
    50.0000        64
    50.0200        46
    50.0400        46
    50.0600        56
    50.0800        44
    50.1000        38
    50.1200        50
    50.1400        44
    50.1600        40
    50.1800        42
    50.2000        34
    50.2200        38
    50.2400        32
    50.2600        36
    50.2800        28
    50.3000        28
    50.3200        34
    50.3400        40
    50.3600        28
    50.3800        36
    50.4000        24
    50.4200        44
    50.4400        26
    50.4600        34
    50.4800        24
    50.5000        30
    50.5200        32
    50.5400        26
    50.5600        32
    50.5800        30
    50.6000        40
    50.6200        30
    50.6400        42
    50.6600        32
    50.6800        30
    50.7000        34
    50.7200        34
    50.7400        26
    50.7600        30
    50.7800        30
    50.8000        30
    50.8200        38
    50.8400        30
    50.8600        26
    50.8800        26
    50.9000        34
    50.9200        34
    50.9400        30
    50.9600        44
    50.9800        32
    51.0000        28
    51.0200        28
    51.0400        24
    51.0600        16
    51.0800        36
    51.1000        30
    51.1200        32
    51.1400        20
    51.1600        30
    51.1800        22
    51.2000        26
    51.2200        34
    51.2400        36
    51.2600        36
    51.2800        28
    51.3000        26
    51.3200        46
    51.3400        30
    51.3600        28
    51.3800        40
    51.4000        40
    51.4200        44
    51.4400        34
    51.4600        34
    51.4800        38
    51.5000        36
    51.5200        30
    51.5400        42
    51.5600        40
    51.5800        28
    51.6000        30
    51.6200        28
    51.6400        24
    51.6600        24
    51.6800        20
    51.7000        28
    51.7200        36
    51.7400        32
    51.7600        26
    51.7800        38
    51.8000        24
    51.8200        42
    51.8400        28
    51.8600        30
    51.8800        48
    51.9000        42
    51.9200        40
    51.9400        38
    51.9600        34
    51.9800        42
    52.0000        42
    52.0200        38
    52.0400        42
    52.0600        50
    52.0800        34
    52.1000        42
    52.1200        40
    52.1400        40
    52.1600        32
    52.1800        44
    52.2000        58
    52.2200        40
    52.2400        42
    52.2600        44
    52.2800        36
    52.3000        50
    52.3200        42
    52.3400        40
    52.3600        38
    52.3800        38
    52.4000        36
    52.4200        42
    52.4400        44
    52.4600        24
    52.4800        30
    52.5000        36
    52.5200        40
    52.5400        38
    52.5600        34
    52.5800        46
    52.6000        36
    52.6200        32
    52.6400        26
    52.6600        50
    52.6800        40
    52.7000        32
    52.7200        40
    52.7400        42
    52.7600        40
    52.7800        30
    52.8000        30
    52.8200        44
    52.8400        34
    52.8600        36
    52.8800        48
    52.9000        36
    52.9200        34
    52.9400        46
    52.9600        50
    52.9800        56
    53.0000        44
    53.0200        42
    53.0400        50
    53.0600        44
    53.0800        42
    53.1000        44
    53.1200        54
    53.1400        56
    53.1600        62
    53.1800        50
    53.2000        40
    53.2200        62
    53.2400        54
    53.2600        52
    53.2800        60
    53.3000        52
    53.3200        56
    53.3400        56
    53.3600        48
    53.3800        46
    53.4000        52
    53.4200        52
    53.4400        46
    53.4600        40
    53.4800        54
    53.5000        40
    53.5200        52
    53.5400        46
    53.5600        48
    53.5800        32
    53.6000        36
    53.6200        50
    53.6400        30
    53.6600        34
    53.6800        32
    53.7000        40
    53.7200        32
    53.7400        38
    53.7600        34
    53.7800        44
    53.8000        36
    53.8200        30
    53.8400        38
    53.8600        28
    53.8800        38
    53.9000        30
    53.9200        32
    53.9400        42
    53.9600        28
    53.9800        28
    54.0000        38
    54.0200        38
    54.0400        24
    54.0600        36
    54.0800        26
    54.1000        26
    54.1200        48
    54.1400        34
    54.1600        32
    54.1800        28
    54.2000        34
    54.2200        30
    54.2400        38
    54.2600        36
    54.2800        46
    54.3000        46
    54.3200        40
    54.3400        42
    54.3600        44
    54.3800        52
    54.4000        30
    54.4200        38
    54.4400        44
    54.4600        34
    54.4800        48
    54.5000        26
    54.5200        26
    54.5400        36
    54.5600        22
    54.5800        32
    54.6000        32
    54.6200        40
    54.6400        42
    54.6600        36
    54.6800        52
    54.7000        48
    54.7200        40
    54.7400        44
    54.7600        48
    54.7800        58
    54.8000        40
    54.8200        42
    54.8400        50
    54.8600        54
    54.8800        70
    54.9000        56
    54.9200        68
    54.9400        66
    54.9600        84
    54.9800        80
    55.0000        68
    55.0200        60
    55.0400        64
    55.0600        90
    55.0800        64
    55.1000        78
    55.1200        84
    55.1400        80
    55.1600        82
    55.1800        94
    55.2000        82
    55.2200        78
    55.2400        78
    55.2600        70
    55.2800        72
    55.3000        54
    55.3200        70
    55.3400        54
    55.3600        36
    55.3800        34
    55.4000        40
    55.4200        34
    55.4400        30
    55.4600        46
    55.4800        46
    55.5000        34
    55.5200        36
    55.5400        36
    55.5600        38
    55.5800        44
    55.6000        34
    55.6200        30
    55.6400        36
    55.6600        32
    55.6800        32
    55.7000        38
    55.7200        32
    55.7400        28
    55.7600        46
    55.7800        34
    55.8000        42
    55.8200        32
    55.8400        28
    55.8600        40
    55.8800        28
    55.9000        28
    55.9200        28
    55.9400        34
    55.9600        32
    55.9800        30
    56.0000        38
    56.0200        30
    56.0400        32
    56.0600        22
    56.0800        38
    56.1000        24
    56.1200        40
    56.1400        32
    56.1600        34
    56.1800        32
    56.2000        30
    56.2200        36
    56.2400        34
    56.2600        32
    56.2800        42
    56.3000        32
    56.3200        36
    56.3400        36
    56.3600        34
    56.3800        28
    56.4000        30
    56.4200        38
    56.4400        28
    56.4600        32
    56.4800        28
    56.5000        30
    56.5200        30
    56.5400        26
    56.5600        28
    56.5800        32
    56.6000        40
    56.6200        30
    56.6400        38
    56.6600        34
    56.6800        34
    56.7000        30
    56.7200        30
    56.7400        26
    56.7600        38
    56.7800        24
    56.8000        26
    56.8200        30
    56.8400        36
    56.8600        42
    56.8800        30
    56.9000        40
    56.9200        34
    56.9400        30
    56.9600        34
    56.9800        28
    57.0000        26
    57.0200        34
    57.0400        30
    57.0600        34
    57.0800        28
    57.1000        40
    57.1200        32
    57.1400        36
    57.1600        40
    57.1800        26
    57.2000        26
    57.2200        24
    57.2400        38
    57.2600        34
    57.2800        28
    57.3000        30
    57.3200        34
    57.3400        30
    57.3600        26
    57.3800        32
    57.4000        32
    57.4200        30
    57.4400        30
    57.4600        32
    57.4800        38
    57.5000        38
    57.5200        32
    57.5400        28
    57.5600        32
    57.5800        28
    57.6000        36
    57.6200        42
    57.6400        28
    57.6600        42
    57.6800        40
    57.7000        28
    57.7200        46
    57.7400        46
    57.7600        24
    57.7800        36
    57.8000        30
    57.8200        30
    57.8400        36
    57.8600        34
    57.8800        28
    57.9000        44
    57.9200        30
    57.9400        44
    57.9600        52
    57.9800        36
    58.0000        32
    58.0200        30
    58.0400        46
    58.0600        24
    58.0800        52
    58.1000        38
    58.1200        34
    58.1400        42
    58.1600        38
    58.1800        44
    58.2000        30
    58.2200        42
    58.2400        34
    58.2600        42
    58.2800        32
    58.3000        42
    58.3200        34
    58.3400        52
    58.3600        72
    58.3800        48
    58.4000        48
    58.4200        58
    58.4400        66
    58.4600        78
    58.4800        82
    58.5000       100
    58.5200       110
    58.5400       106
    58.5600       100
    58.5800       142
    58.6000       148
    58.6200       162
    58.6400       156
    58.6600       152
    58.6800       204
    58.7000       182
    58.7200       200
    58.7400       210
    58.7600       212
    58.7800       230
    58.8000       202
    58.8200       192
    58.8400       204
    58.8600       216
    58.8800       220
    58.9000       180
    58.9200       176
    58.9400       180
    58.9600       152
    58.9800       134
    59.0000       160
    59.0200       126
    59.0400       140
    59.0600        96
    59.0800       106
    59.1000        92
    59.1200        78
    59.1400        96
    59.1600        88
    59.1800        68
    59.2000        62
    59.2200        52
    59.2400        64
    59.2600        62
    59.2800        60
    59.3000        52
    59.3200        64
    59.3400        52
    59.3600        56
    59.3800        44
    59.4000        54
    59.4200        72
    59.4400        48
    59.4600        84
    59.4800        78
    59.5000       104
    59.5200       116
    59.5400       142
    59.5600       158
    59.5800       156
    59.6000       148
    59.6200       166
    59.6400       152
    59.6600       164
    59.6800       134
    59.7000       130
    59.7200       124
    59.7400       138
    59.7600       112
    59.7800       114
    59.8000        98
    59.8200       110
    59.8400        84
    59.8600        74
    59.8800        88
    59.9000        66
    59.9200        62
    59.9400        56
    59.9600        54
    59.9800        56
    60.0000        30
    60.0200        48
    60.0400        44
    60.0600        42
    60.0800        50
    60.1000        40
    60.1200        38
    60.1400        44
    60.1600        40
    60.1800        38
    60.2000        32
    60.2200        32
    60.2400        28
    60.2600        36
    60.2800        46
    60.3000        42
    60.3200        40
    60.3400        38
    60.3600        34
    60.3800        40
    60.4000        26
    60.4200        26
    60.4400        34
    60.4600        42
    60.4800        32
    60.5000        44
    60.5200        20
    60.5400        46
    60.5600        28
    60.5800        44
    60.6000        52
    60.6200        46
    60.6400        38
    60.6600        54
    60.6800        58
    60.7000        36
    60.7200        46
    60.7400        38
    60.7600        50
    60.7800        50
    60.8000        46
    60.8200        42
    60.8400        48
    60.8600        48
    60.8800        54
    60.9000        64
    60.9200        64
    60.9400        58
    60.9600        68
    60.9800        50
    61.0000        46
    61.0200        58
    61.0400        80
    61.0600        78
    61.0800        70
    61.1000        74
    61.1200        72
    61.1400        70
    61.1600        74
    61.1800        72
    61.2000        84
    61.2200        74
    61.2400        78
    61.2600        70
    61.2800        76
    61.3000        80
    61.3200        66
    61.3400        68
    61.3600        54
    61.3800        56
    61.4000        40
    61.4200        44
    61.4400        46
    61.4600        36
    61.4800        42
    61.5000        42
    61.5200        48
    61.5400        42
    61.5600        42
    61.5800        38
    61.6000        34
    61.6200        40
    61.6400        38
    61.6600        32
    61.6800        30
    61.7000        40
    61.7200        24
    61.7400        36
    61.7600        24
    61.7800        42
    61.8000        34
    61.8200        26
    61.8400        34
    61.8600        24
    61.8800        34
    61.9000        36
    61.9200        40
    61.9400        22
    61.9600        34
    61.9800        36
    62.0000        26
    62.0200        28
    62.0400        30
    62.0600        32
    62.0800        38
    62.1000        36
    62.1200        40
    62.1400        36
    62.1600        36
    62.1800        28
    62.2000        32
    62.2200        34
    62.2400        30
    62.2600        30
    62.2800        34
    62.3000        26
    62.3200        30
    62.3400        22
    62.3600        42
    62.3800        34
    62.4000        22
    62.4200        34
    62.4400        30
    62.4600        44
    62.4800        30
    62.5000        30
    62.5200        42
    62.5400        26
    62.5600        24
    62.5800        16
    62.6000        36
    62.6200        36
    62.6400        30
    62.6600        40
    62.6800        30
    62.7000        28
    62.7200        26
    62.7400        32
    62.7600        38
    62.7800        28
    62.8000        36
    62.8200        30
    62.8400        28
    62.8600        26
    62.8800        40
    62.9000        30
    62.9200        26
    62.9400        30
    62.9600        30
    62.9800        30
    63.0000        32
    63.0200        26
    63.0400        32
    63.0600        34
    63.0800        38
    63.1000        36
    63.1200        28
    63.1400        42
    63.1600        24
    63.1800        36
    63.2000        38
    63.2200        46
    63.2400        36
    63.2600        40
    63.2800        28
    63.3000        44
    63.3200        34
    63.3400        34
    63.3600        34
    63.3800        34
    63.4000        40
    63.4200        30
    63.4400        36
    63.4600        34
    63.4800        30
    63.5000        36
    63.5200        42
    63.5400        20
    63.5600        26
    63.5800        32
    63.6000        18
    63.6200        34
    63.6400        32
    63.6600        24
    63.6800        28
    63.7000        36
    63.7200        46
    63.7400        38
    63.7600        36
    63.7800        40
    63.8000        36
    63.8200        36
    63.8400        32
    63.8600        22
    63.8800        22
    63.9000        34
    63.9200        30
    63.9400        26
    63.9600        28
    63.9800        40
    64.0000        22
    64.0200        32
    64.0400        28
    64.0600        38
    64.0800        46
    64.1000        42
    64.1200        16
    64.1400        34
    64.1600        28
    64.1800        24
    64.2000        36
    64.2200        28
    64.2400        28
    64.2600        28
    64.2800        32
    64.3000        38
    64.3200        32
    64.3400        36
    64.3600        24
    64.3800        34
    64.4000        34
    64.4200        30
    64.4400        38
    64.4600        36
    64.4800        36
    64.5000        34
    64.5200        44
    64.5400        26
    64.5600        28
    64.5800        36
    64.6000        26
    64.6200        34
    64.6400        30
    64.6600        46
    64.6800        32
    64.7000        30
    64.7200        32
    64.7400        26
    64.7600        42
    64.7800        42
    64.8000        34
    64.8200        28
    64.8400        42
    64.8600        38
    64.8800        34
    64.9000        32
    64.9200        22
    64.9400        30
    64.9600        48
    64.9800        34
    65.0000        36
