/////////////////////////////////////////////////////////////////////////////////
/// Profile Data Ascii Dump (XRD)                                             ///
/////////////////////////////////////////////////////////////////////////////////

  Group     : Swayze
  Data      : GDS25
  File Name : GDS25.RAW

# Profile Datafile
          comment             = Butlerite 
          date & time         = 08-03-27 06:45:47 

# Measurement Condition
    X-ray tube
          target              = Cu 
          voltage             = 40.0 (kV)
          current             = 30.0 (mA)
    Slits
          divergence slit     = 2.00000 (deg) 
          scatter slit        = 2.00000 (deg) 
          receiving slit      = 0.15000 (mm)  
    Scanning
          drive axis          = Theta-2Theta 
          scan range          =    4.000 -   65.000 
          scan mode           = Continuous Scan 
          scan speed          =   2.0000 (deg/min) 
          sampling pitch      =   0.0200 (deg) 
          preset time         =   0.60 (sec) 

# Data      [ Total No. = 3051 ]
  <2Theta>   <   I   >
     4.0000       202
     4.0200       194
     4.0400       160
     4.0600       202
     4.0800       192
     4.1000       158
     4.1200       176
     4.1400       168
     4.1600       170
     4.1800       188
     4.2000       170
     4.2200       168
     4.2400       186
     4.2600       178
     4.2800       162
     4.3000       182
     4.3200       160
     4.3400       152
     4.3600       168
     4.3800       172
     4.4000       176
     4.4200       182
     4.4400       192
     4.4600       168
     4.4800       168
     4.5000       164
     4.5200       172
     4.5400       172
     4.5600       160
     4.5800       166
     4.6000       152
     4.6200       172
     4.6400       162
     4.6600       164
     4.6800       150
     4.7000       136
     4.7200       148
     4.7400       154
     4.7600       154
     4.7800       142
     4.8000       154
     4.8200       160
     4.8400       160
     4.8600       162
     4.8800       150
     4.9000       180
     4.9200       148
     4.9400       154
     4.9600       164
     4.9800       160
     5.0000       144
     5.0200       154
     5.0400       136
     5.0600       148
     5.0800       128
     5.1000       152
     5.1200       168
     5.1400       158
     5.1600       134
     5.1800       168
     5.2000       162
     5.2200       162
     5.2400       166
     5.2600       174
     5.2800       160
     5.3000       168
     5.3200       150
     5.3400       182
     5.3600       126
     5.3800       158
     5.4000       168
     5.4200       166
     5.4400       128
     5.4600       150
     5.4800       140
     5.5000       148
     5.5200       160
     5.5400       154
     5.5600       162
     5.5800       158
     5.6000       176
     5.6200       144
     5.6400       160
     5.6600       152
     5.6800       134
     5.7000       130
     5.7200       140
     5.7400       116
     5.7600       136
     5.7800       154
     5.8000       152
     5.8200       156
     5.8400       166
     5.8600       140
     5.8800       136
     5.9000       160
     5.9200       140
     5.9400       156
     5.9600       154
     5.9800       154
     6.0000       140
     6.0200       170
     6.0400       150
     6.0600       144
     6.0800       142
     6.1000       142
     6.1200       160
     6.1400       146
     6.1600       156
     6.1800       144
     6.2000       142
     6.2200       134
     6.2400       142
     6.2600       128
     6.2800       154
     6.3000       132
     6.3200       138
     6.3400       130
     6.3600       138
     6.3800       132
     6.4000       126
     6.4200       134
     6.4400       138
     6.4600       110
     6.4800       134
     6.5000       132
     6.5200       136
     6.5400       134
     6.5600       128
     6.5800       136
     6.6000       132
     6.6200       150
     6.6400       124
     6.6600       134
     6.6800       108
     6.7000       138
     6.7200       126
     6.7400       128
     6.7600       154
     6.7800       132
     6.8000       116
     6.8200       112
     6.8400       112
     6.8600       140
     6.8800       118
     6.9000       136
     6.9200       148
     6.9400       124
     6.9600       116
     6.9800       120
     7.0000       100
     7.0200       114
     7.0400       112
     7.0600       134
     7.0800       114
     7.1000       120
     7.1200       118
     7.1400       102
     7.1600       120
     7.1800       116
     7.2000       100
     7.2200       104
     7.2400       102
     7.2600       126
     7.2800       104
     7.3000       126
     7.3200       100
     7.3400       116
     7.3600       108
     7.3800       116
     7.4000       112
     7.4200        94
     7.4400       132
     7.4600       102
     7.4800       120
     7.5000       104
     7.5200       124
     7.5400       112
     7.5600       106
     7.5800       104
     7.6000       118
     7.6200       112
     7.6400       118
     7.6600       110
     7.6800       116
     7.7000       116
     7.7200       102
     7.7400       120
     7.7600       122
     7.7800       100
     7.8000        96
     7.8200       100
     7.8400        94
     7.8600       126
     7.8800       104
     7.9000       120
     7.9200       114
     7.9400       122
     7.9600       120
     7.9800       122
     8.0000        90
     8.0200       108
     8.0400       108
     8.0600       122
     8.0800       106
     8.1000       114
     8.1200        96
     8.1400       106
     8.1600       108
     8.1800        96
     8.2000       116
     8.2200       112
     8.2400       136
     8.2600        98
     8.2800       122
     8.3000       102
     8.3200       120
     8.3400       128
     8.3600       110
     8.3800       106
     8.4000       104
     8.4200       112
     8.4400        98
     8.4600       104
     8.4800       134
     8.5000        98
     8.5200       118
     8.5400       106
     8.5600       124
     8.5800       118
     8.6000        96
     8.6200       108
     8.6400       114
     8.6600       130
     8.6800       130
     8.7000        98
     8.7200       102
     8.7400       114
     8.7600       124
     8.7800       106
     8.8000       120
     8.8200       102
     8.8400       116
     8.8600       112
     8.8800       122
     8.9000       120
     8.9200       128
     8.9400       122
     8.9600       104
     8.9800       110
     9.0000        96
     9.0200       108
     9.0400       124
     9.0600       112
     9.0800       104
     9.1000       100
     9.1200       112
     9.1400       110
     9.1600       120
     9.1800        98
     9.2000       118
     9.2200       112
     9.2400       116
     9.2600       106
     9.2800       102
     9.3000        76
     9.3200       110
     9.3400       112
     9.3600       112
     9.3800       100
     9.4000       108
     9.4200        98
     9.4400       100
     9.4600       112
     9.4800       104
     9.5000       104
     9.5200       122
     9.5400       108
     9.5600       120
     9.5800       120
     9.6000       102
     9.6200       108
     9.6400       104
     9.6600       126
     9.6800       114
     9.7000       100
     9.7200       116
     9.7400       128
     9.7600       110
     9.7800       100
     9.8000       108
     9.8200       126
     9.8400       132
     9.8600       106
     9.8800       114
     9.9000       118
     9.9200       102
     9.9400        92
     9.9600       114
     9.9800        94
    10.0000        90
    10.0200       104
    10.0400       108
    10.0600       118
    10.0800       118
    10.1000       116
    10.1200        92
    10.1400       104
    10.1600       100
    10.1800       102
    10.2000       112
    10.2200       108
    10.2400        94
    10.2600       112
    10.2800        94
    10.3000       100
    10.3200       110
    10.3400        98
    10.3600       122
    10.3800       100
    10.4000        94
    10.4200       102
    10.4400       114
    10.4600        96
    10.4800        90
    10.5000       110
    10.5200        94
    10.5400        88
    10.5600       102
    10.5800       108
    10.6000        92
    10.6200       102
    10.6400        88
    10.6600       112
    10.6800       108
    10.7000        84
    10.7200       108
    10.7400        82
    10.7600        90
    10.7800        96
    10.8000        84
    10.8200        96
    10.8400        96
    10.8600       104
    10.8800       102
    10.9000       102
    10.9200        98
    10.9400        90
    10.9600       106
    10.9800        92
    11.0000        82
    11.0200        98
    11.0400        94
    11.0600        84
    11.0800        86
    11.1000        66
    11.1200        90
    11.1400       102
    11.1600        94
    11.1800        82
    11.2000        96
    11.2200        98
    11.2400        94
    11.2600        92
    11.2800        90
    11.3000        90
    11.3200        82
    11.3400        86
    11.3600        86
    11.3800        88
    11.4000        92
    11.4200        92
    11.4400        88
    11.4600        90
    11.4800        74
    11.5000        70
    11.5200        84
    11.5400        80
    11.5600        84
    11.5800        70
    11.6000        92
    11.6200        82
    11.6400        82
    11.6600        86
    11.6800        86
    11.7000        80
    11.7200        88
    11.7400        76
    11.7600        76
    11.7800        92
    11.8000        68
    11.8200        78
    11.8400        80
    11.8600        98
    11.8800        78
    11.9000        70
    11.9200        84
    11.9400        80
    11.9600        84
    11.9800        80
    12.0000        74
    12.0200        70
    12.0400        86
    12.0600        68
    12.0800        82
    12.1000        76
    12.1200        98
    12.1400        66
    12.1600        80
    12.1800        84
    12.2000        74
    12.2200        78
    12.2400        82
    12.2600       100
    12.2800        70
    12.3000        76
    12.3200        82
    12.3400        74
    12.3600        72
    12.3800        72
    12.4000        78
    12.4200        78
    12.4400        90
    12.4600        72
    12.4800        68
    12.5000        76
    12.5200        72
    12.5400        64
    12.5600        76
    12.5800        70
    12.6000        70
    12.6200        70
    12.6400        90
    12.6600        84
    12.6800        82
    12.7000        74
    12.7200        72
    12.7400        88
    12.7600        80
    12.7800        66
    12.8000        72
    12.8200        82
    12.8400        78
    12.8600        80
    12.8800        70
    12.9000        66
    12.9200        92
    12.9400        66
    12.9600        78
    12.9800        82
    13.0000        62
    13.0200        72
    13.0400        70
    13.0600        62
    13.0800        70
    13.1000        82
    13.1200        78
    13.1400        78
    13.1600        76
    13.1800        68
    13.2000        66
    13.2200        56
    13.2400        76
    13.2600        60
    13.2800        72
    13.3000        60
    13.3200        76
    13.3400        66
    13.3600        68
    13.3800        80
    13.4000        72
    13.4200        60
    13.4400        64
    13.4600        60
    13.4800        98
    13.5000        64
    13.5200       102
    13.5400        70
    13.5600        62
    13.5800        68
    13.6000        74
    13.6200        72
    13.6400        76
    13.6600        70
    13.6800        80
    13.7000        72
    13.7200        62
    13.7400        76
    13.7600        56
    13.7800        70
    13.8000        52
    13.8200        80
    13.8400        78
    13.8600        72
    13.8800        78
    13.9000        76
    13.9200        76
    13.9400        68
    13.9600        74
    13.9800        72
    14.0000        80
    14.0200        78
    14.0400        86
    14.0600        88
    14.0800       102
    14.1000       102
    14.1200        90
    14.1400       118
    14.1600       110
    14.1800       108
    14.2000       120
    14.2200       130
    14.2400       116
    14.2600       134
    14.2800       118
    14.3000       108
    14.3200       102
    14.3400        80
    14.3600        82
    14.3800        76
    14.4000        76
    14.4200        80
    14.4400        70
    14.4600        64
    14.4800        68
    14.5000        66
    14.5200        74
    14.5400        72
    14.5600        68
    14.5800        66
    14.6000        62
    14.6200        68
    14.6400        70
    14.6600        70
    14.6800        68
    14.7000        84
    14.7200        76
    14.7400        68
    14.7600        74
    14.7800        74
    14.8000        68
    14.8200        58
    14.8400        68
    14.8600        70
    14.8800        58
    14.9000        54
    14.9200        66
    14.9400        68
    14.9600        56
    14.9800        58
    15.0000        56
    15.0200        62
    15.0400        64
    15.0600        70
    15.0800        64
    15.1000        66
    15.1200        64
    15.1400        76
    15.1600        52
    15.1800        60
    15.2000        54
    15.2200        68
    15.2400        74
    15.2600        60
    15.2800        84
    15.3000        64
    15.3200        56
    15.3400        56
    15.3600        86
    15.3800        62
    15.4000        80
    15.4200        82
    15.4400        64
    15.4600        72
    15.4800        74
    15.5000        64
    15.5200        80
    15.5400        62
    15.5600        80
    15.5800        70
    15.6000        72
    15.6200        66
    15.6400        68
    15.6600        84
    15.6800        70
    15.7000        76
    15.7200        92
    15.7400        96
    15.7600       106
    15.7800        98
    15.8000       118
    15.8200       124
    15.8400       132
    15.8600       150
    15.8800       176
    15.9000       148
    15.9200       140
    15.9400       132
    15.9600       124
    15.9800        68
    16.0000        90
    16.0200        76
    16.0400        74
    16.0600        78
    16.0800        64
    16.1000        64
    16.1200        54
    16.1400        62
    16.1600        52
    16.1800        66
    16.2000        46
    16.2200        56
    16.2400        68
    16.2600        76
    16.2800        74
    16.3000        58
    16.3200        66
    16.3400        58
    16.3600        64
    16.3800        50
    16.4000        50
    16.4200        64
    16.4400        64
    16.4600        54
    16.4800        62
    16.5000        74
    16.5200        64
    16.5400        54
    16.5600        60
    16.5800        52
    16.6000        64
    16.6200        54
    16.6400        72
    16.6600        64
    16.6800        48
    16.7000        64
    16.7200        64
    16.7400        68
    16.7600        56
    16.7800        50
    16.8000        60
    16.8200        74
    16.8400        64
    16.8600        56
    16.8800        58
    16.9000        70
    16.9200        54
    16.9400        72
    16.9600        76
    16.9800        66
    17.0000        60
    17.0200        64
    17.0400        62
    17.0600        80
    17.0800        72
    17.1000        82
    17.1200        70
    17.1400        78
    17.1600        84
    17.1800        96
    17.2000       106
    17.2200       112
    17.2400       122
    17.2600       108
    17.2800       106
    17.3000       144
    17.3200       130
    17.3400       158
    17.3600       170
    17.3800       138
    17.4000       172
    17.4200       192
    17.4400       226
    17.4600       250
    17.4800       326
    17.5000       334
    17.5200       448
    17.5400       500
    17.5600       590
    17.5800       694
    17.6000       814
    17.6200       942
    17.6400      1060
    17.6600      1118
    17.6800      1088
    17.7000       990
    17.7200       810
    17.7400       572
    17.7600       398
    17.7800       252
    17.8000       178
    17.8200       144
    17.8400       114
    17.8600       104
    17.8800        76
    17.9000        94
    17.9200        86
    17.9400        88
    17.9600        62
    17.9800        74
    18.0000        70
    18.0200        68
    18.0400        62
    18.0600        78
    18.0800        70
    18.1000        60
    18.1200        78
    18.1400        64
    18.1600        56
    18.1800        56
    18.2000        56
    18.2200        62
    18.2400        62
    18.2600        68
    18.2800        58
    18.3000        64
    18.3200        64
    18.3400        68
    18.3600        76
    18.3800        88
    18.4000        74
    18.4200        78
    18.4400        90
    18.4600        94
    18.4800       102
    18.5000       102
    18.5200       112
    18.5400       122
    18.5600       164
    18.5800       166
    18.6000       216
    18.6200       232
    18.6400       188
    18.6600       178
    18.6800       192
    18.7000       148
    18.7200       108
    18.7400       102
    18.7600        74
    18.7800        90
    18.8000        68
    18.8200        54
    18.8400        64
    18.8600        78
    18.8800        40
    18.9000        74
    18.9200        60
    18.9400        42
    18.9600        52
    18.9800        54
    19.0000        60
    19.0200        60
    19.0400        56
    19.0600        76
    19.0800        62
    19.1000        44
    19.1200        52
    19.1400        62
    19.1600        68
    19.1800        44
    19.2000        60
    19.2200        54
    19.2400        50
    19.2600        58
    19.2800        48
    19.3000        50
    19.3200        54
    19.3400        42
    19.3600        42
    19.3800        54
    19.4000        48
    19.4200        52
    19.4400        50
    19.4600        60
    19.4800        58
    19.5000        58
    19.5200        66
    19.5400        64
    19.5600        56
    19.5800        60
    19.6000        58
    19.6200        68
    19.6400        72
    19.6600        72
    19.6800        64
    19.7000        96
    19.7200        82
    19.7400        84
    19.7600        96
    19.7800       114
    19.8000       130
    19.8200       104
    19.8400       126
    19.8600       166
    19.8800       220
    19.9000       204
    19.9200       196
    19.9400       182
    19.9600       204
    19.9800       186
    20.0000       174
    20.0200       114
    20.0400       114
    20.0600        96
    20.0800        72
    20.1000        84
    20.1200        62
    20.1400        82
    20.1600        60
    20.1800        56
    20.2000        50
    20.2200        56
    20.2400        46
    20.2600        58
    20.2800        50
    20.3000        40
    20.3200        54
    20.3400        56
    20.3600        52
    20.3800        38
    20.4000        64
    20.4200        48
    20.4400        42
    20.4600        48
    20.4800        54
    20.5000        50
    20.5200        56
    20.5400        36
    20.5600        42
    20.5800        50
    20.6000        48
    20.6200        42
    20.6400        50
    20.6600        52
    20.6800        42
    20.7000        50
    20.7200        68
    20.7400        48
    20.7600        56
    20.7800        48
    20.8000        50
    20.8200        42
    20.8400        50
    20.8600        58
    20.8800        30
    20.9000        52
    20.9200        68
    20.9400        46
    20.9600        38
    20.9800        42
    21.0000        46
    21.0200        56
    21.0400        52
    21.0600        52
    21.0800        48
    21.1000        48
    21.1200        42
    21.1400        40
    21.1600        62
    21.1800        48
    21.2000        44
    21.2200        46
    21.2400        56
    21.2600        54
    21.2800        52
    21.3000        48
    21.3200        54
    21.3400        56
    21.3600        46
    21.3800        64
    21.4000        60
    21.4200        50
    21.4400        56
    21.4600        40
    21.4800        36
    21.5000        42
    21.5200        60
    21.5400        58
    21.5600        46
    21.5800        52
    21.6000        44
    21.6200        38
    21.6400        44
    21.6600        40
    21.6800        54
    21.7000        36
    21.7200        38
    21.7400        46
    21.7600        54
    21.7800        58
    21.8000        54
    21.8200        38
    21.8400        58
    21.8600        58
    21.8800        54
    21.9000        46
    21.9200        50
    21.9400        42
    21.9600        40
    21.9800        34
    22.0000        46
    22.0200        56
    22.0400        40
    22.0600        38
    22.0800        48
    22.1000        42
    22.1200        72
    22.1400        50
    22.1600        42
    22.1800        54
    22.2000        42
    22.2200        46
    22.2400        48
    22.2600        52
    22.2800        44
    22.3000        52
    22.3200        56
    22.3400        42
    22.3600        48
    22.3800        48
    22.4000        66
    22.4200        44
    22.4400        54
    22.4600        46
    22.4800        52
    22.5000        36
    22.5200        54
    22.5400        52
    22.5600        56
    22.5800        46
    22.6000        60
    22.6200        46
    22.6400        64
    22.6600        58
    22.6800        54
    22.7000        48
    22.7200        60
    22.7400        40
    22.7600        62
    22.7800        46
    22.8000        46
    22.8200        50
    22.8400        50
    22.8600        42
    22.8800        42
    22.9000        38
    22.9200        52
    22.9400        48
    22.9600        52
    22.9800        52
    23.0000        40
    23.0200        50
    23.0400        46
    23.0600        46
    23.0800        42
    23.1000        46
    23.1200        46
    23.1400        38
    23.1600        42
    23.1800        32
    23.2000        38
    23.2200        34
    23.2400        56
    23.2600        44
    23.2800        34
    23.3000        42
    23.3200        38
    23.3400        44
    23.3600        32
    23.3800        56
    23.4000        38
    23.4200        42
    23.4400        42
    23.4600        44
    23.4800        42
    23.5000        44
    23.5200        50
    23.5400        44
    23.5600        42
    23.5800        62
    23.6000        48
    23.6200        46
    23.6400        38
    23.6600        42
    23.6800        44
    23.7000        52
    23.7200        48
    23.7400        48
    23.7600        36
    23.7800        46
    23.8000        56
    23.8200        54
    23.8400        52
    23.8600        56
    23.8800        58
    23.9000        46
    23.9200        58
    23.9400        70
    23.9600        70
    23.9800        70
    24.0000        78
    24.0200        74
    24.0400        86
    24.0600        60
    24.0800        86
    24.1000        80
    24.1200        62
    24.1400        60
    24.1600        38
    24.1800        46
    24.2000        76
    24.2200        42
    24.2400        48
    24.2600        58
    24.2800        54
    24.3000        44
    24.3200        60
    24.3400        60
    24.3600        66
    24.3800        66
    24.4000        66
    24.4200        90
    24.4400        58
    24.4600        96
    24.4800        96
    24.5000       104
    24.5200       142
    24.5400       182
    24.5600       158
    24.5800       186
    24.6000       216
    24.6200       198
    24.6400       214
    24.6600       204
    24.6800       186
    24.7000       176
    24.7200       120
    24.7400       104
    24.7600        84
    24.7800        62
    24.8000        70
    24.8200        58
    24.8400        52
    24.8600        48
    24.8800        58
    24.9000        48
    24.9200        60
    24.9400        40
    24.9600        68
    24.9800        42
    25.0000        46
    25.0200        40
    25.0400        46
    25.0600        38
    25.0800        60
    25.1000        54
    25.1200        60
    25.1400        58
    25.1600        48
    25.1800        64
    25.2000        52
    25.2200        38
    25.2400        62
    25.2600        48
    25.2800        56
    25.3000        58
    25.3200        36
    25.3400        56
    25.3600        38
    25.3800        52
    25.4000        54
    25.4200        50
    25.4400        66
    25.4600        48
    25.4800        46
    25.5000        36
    25.5200        38
    25.5400        38
    25.5600        38
    25.5800        54
    25.6000        48
    25.6200        44
    25.6400        40
    25.6600        40
    25.6800        30
    25.7000        54
    25.7200        42
    25.7400        52
    25.7600        48
    25.7800        44
    25.8000        42
    25.8200        40
    25.8400        46
    25.8600        38
    25.8800        38
    25.9000        58
    25.9200        36
    25.9400        36
    25.9600        48
    25.9800        60
    26.0000        50
    26.0200        44
    26.0400        64
    26.0600        38
    26.0800        52
    26.1000        52
    26.1200        34
    26.1400        44
    26.1600        46
    26.1800        40
    26.2000        52
    26.2200        40
    26.2400        38
    26.2600        54
    26.2800        44
    26.3000        40
    26.3200        40
    26.3400        32
    26.3600        42
    26.3800        40
    26.4000        48
    26.4200        48
    26.4400        40
    26.4600        48
    26.4800        62
    26.5000        46
    26.5200        50
    26.5400        44
    26.5600        46
    26.5800        60
    26.6000        48
    26.6200        44
    26.6400        46
    26.6600        32
    26.6800        44
    26.7000        46
    26.7200        46
    26.7400        46
    26.7600        50
    26.7800        38
    26.8000        38
    26.8200        46
    26.8400        76
    26.8600        46
    26.8800        36
    26.9000        48
    26.9200        40
    26.9400        58
    26.9600        50
    26.9800        50
    27.0000        36
    27.0200        46
    27.0400        48
    27.0600        50
    27.0800        44
    27.1000        68
    27.1200        52
    27.1400        48
    27.1600        62
    27.1800        52
    27.2000        70
    27.2200        80
    27.2400        76
    27.2600        66
    27.2800        82
    27.3000       106
    27.3200       110
    27.3400       110
    27.3600       128
    27.3800       154
    27.4000       190
    27.4200       212
    27.4400       198
    27.4600       236
    27.4800       242
    27.5000       210
    27.5200       180
    27.5400       176
    27.5600       148
    27.5800       112
    27.6000       106
    27.6200        82
    27.6400        68
    27.6600       100
    27.6800        94
    27.7000        84
    27.7200       102
    27.7400       104
    27.7600       106
    27.7800       136
    27.8000       128
    27.8200       140
    27.8400       196
    27.8600       226
    27.8800       256
    27.9000       306
    27.9200       376
    27.9400       432
    27.9600       632
    27.9800       624
    28.0000       856
    28.0200       952
    28.0400      1030
    28.0600      1084
    28.0800      1102
    28.1000      1040
    28.1200       934
    28.1400       770
    28.1600       656
    28.1800       436
    28.2000       356
    28.2200       242
    28.2400       188
    28.2600       166
    28.2800       140
    28.3000        92
    28.3200        96
    28.3400       106
    28.3600        76
    28.3800        72
    28.4000        86
    28.4200        76
    28.4400        68
    28.4600        74
    28.4800        56
    28.5000        94
    28.5200        70
    28.5400        74
    28.5600        80
    28.5800        80
    28.6000        82
    28.6200        76
    28.6400        84
    28.6600        74
    28.6800       114
    28.7000       128
    28.7200       102
    28.7400       124
    28.7600       148
    28.7800       170
    28.8000       188
    28.8200       180
    28.8400       222
    28.8600       238
    28.8800       298
    28.9000       372
    28.9200       438
    28.9400       422
    28.9600       444
    28.9800       462
    29.0000       454
    29.0200       416
    29.0400       316
    29.0600       282
    29.0800       218
    29.1000       152
    29.1200       142
    29.1400        98
    29.1600        98
    29.1800        66
    29.2000        60
    29.2200        52
    29.2400        48
    29.2600        46
    29.2800        60
    29.3000        50
    29.3200        40
    29.3400        36
    29.3600        40
    29.3800        40
    29.4000        32
    29.4200        44
    29.4400        44
    29.4600        36
    29.4800        40
    29.5000        44
    29.5200        44
    29.5400        48
    29.5600        40
    29.5800        40
    29.6000        42
    29.6200        36
    29.6400        42
    29.6600        52
    29.6800        40
    29.7000        28
    29.7200        46
    29.7400        42
    29.7600        34
    29.7800        40
    29.8000        46
    29.8200        58
    29.8400        26
    29.8600        48
    29.8800        66
    29.9000        68
    29.9200        54
    29.9400        62
    29.9600        72
    29.9800        50
    30.0000        60
    30.0200        52
    30.0400        54
    30.0600        56
    30.0800        54
    30.1000        50
    30.1200        60
    30.1400        40
    30.1600        50
    30.1800        30
    30.2000        48
    30.2200        50
    30.2400        20
    30.2600        42
    30.2800        40
    30.3000        46
    30.3200        28
    30.3400        56
    30.3600        42
    30.3800        58
    30.4000        54
    30.4200        40
    30.4400        28
    30.4600        48
    30.4800        46
    30.5000        54
    30.5200        50
    30.5400        60
    30.5600        62
    30.5800        64
    30.6000        72
    30.6200        80
    30.6400        82
    30.6600       102
    30.6800        86
    30.7000        94
    30.7200        94
    30.7400        84
    30.7600        92
    30.7800        86
    30.8000        78
    30.8200        70
    30.8400        64
    30.8600        50
    30.8800        54
    30.9000        54
    30.9200        54
    30.9400        54
    30.9600        48
    30.9800        56
    31.0000        56
    31.0200        50
    31.0400        52
    31.0600        50
    31.0800        62
    31.1000        72
    31.1200        78
    31.1400        80
    31.1600        92
    31.1800       122
    31.2000        94
    31.2200        98
    31.2400       110
    31.2600       120
    31.2800       130
    31.3000       104
    31.3200       106
    31.3400       102
    31.3600        70
    31.3800        62
    31.4000        56
    31.4200        48
    31.4400        56
    31.4600        34
    31.4800        44
    31.5000        42
    31.5200        36
    31.5400        40
    31.5600        44
    31.5800        26
    31.6000        42
    31.6200        40
    31.6400        42
    31.6600        36
    31.6800        36
    31.7000        38
    31.7200        34
    31.7400        36
    31.7600        34
    31.7800        44
    31.8000        26
    31.8200        32
    31.8400        36
    31.8600        50
    31.8800        34
    31.9000        34
    31.9200        38
    31.9400        46
    31.9600        46
    31.9800        28
    32.0000        40
    32.0200        30
    32.0400        44
    32.0600        46
    32.0800        42
    32.1000        48
    32.1200        58
    32.1400        50
    32.1600        48
    32.1800        54
    32.2000        54
    32.2200        44
    32.2400        46
    32.2600        46
    32.2800        58
    32.3000        32
    32.3200        44
    32.3400        38
    32.3600        26
    32.3800        42
    32.4000        38
    32.4200        24
    32.4400        38
    32.4600        50
    32.4800        44
    32.5000        42
    32.5200        50
    32.5400        40
    32.5600        40
    32.5800        32
    32.6000        34
    32.6200        48
    32.6400        46
    32.6600        28
    32.6800        38
    32.7000        38
    32.7200        30
    32.7400        34
    32.7600        40
    32.7800        30
    32.8000        36
    32.8200        34
    32.8400        48
    32.8600        38
    32.8800        46
    32.9000        38
    32.9200        44
    32.9400        58
    32.9600        50
    32.9800        46
    33.0000        68
    33.0200        52
    33.0400        50
    33.0600        46
    33.0800        72
    33.1000        42
    33.1200        38
    33.1400        42
    33.1600        42
    33.1800        44
    33.2000        44
    33.2200        50
    33.2400        36
    33.2600        44
    33.2800        38
    33.3000        40
    33.3200        46
    33.3400        40
    33.3600        58
    33.3800        44
    33.4000        46
    33.4200        40
    33.4400        56
    33.4600        46
    33.4800        44
    33.5000        54
    33.5200        48
    33.5400        48
    33.5600        42
    33.5800        30
    33.6000        54
    33.6200        40
    33.6400        40
    33.6600        40
    33.6800        42
    33.7000        30
    33.7200        38
    33.7400        38
    33.7600        38
    33.7800        38
    33.8000        38
    33.8200        32
    33.8400        30
    33.8600        34
    33.8800        34
    33.9000        30
    33.9200        30
    33.9400        26
    33.9600        26
    33.9800        40
    34.0000        50
    34.0200        20
    34.0400        38
    34.0600        60
    34.0800        44
    34.1000        30
    34.1200        48
    34.1400        40
    34.1600        42
    34.1800        28
    34.2000        46
    34.2200        42
    34.2400        46
    34.2600        50
    34.2800        34
    34.3000        58
    34.3200        48
    34.3400        68
    34.3600        72
    34.3800        70
    34.4000        62
    34.4200        86
    34.4400        90
    34.4600        66
    34.4800        66
    34.5000        76
    34.5200        78
    34.5400        72
    34.5600        78
    34.5800        76
    34.6000        82
    34.6200        84
    34.6400        92
    34.6600        92
    34.6800       112
    34.7000       122
    34.7200       116
    34.7400        86
    34.7600        92
    34.7800        98
    34.8000        76
    34.8200        62
    34.8400        60
    34.8600        56
    34.8800        54
    34.9000        42
    34.9200        38
    34.9400        38
    34.9600        50
    34.9800        38
    35.0000        36
    35.0200        52
    35.0400        36
    35.0600        36
    35.0800        34
    35.1000        50
    35.1200        34
    35.1400        34
    35.1600        48
    35.1800        48
    35.2000        36
    35.2200        40
    35.2400        36
    35.2600        34
    35.2800        46
    35.3000        48
    35.3200        48
    35.3400        48
    35.3600        56
    35.3800        54
    35.4000        38
    35.4200        46
    35.4400        50
    35.4600        46
    35.4800        44
    35.5000        42
    35.5200        62
    35.5400        58
    35.5600        52
    35.5800        64
    35.6000        70
    35.6200        72
    35.6400        82
    35.6600       104
    35.6800       114
    35.7000       118
    35.7200       154
    35.7400       186
    35.7600       252
    35.7800       280
    35.8000       280
    35.8200       342
    35.8400       332
    35.8600       322
    35.8800       290
    35.9000       236
    35.9200       246
    35.9400       192
    35.9600       150
    35.9800       112
    36.0000        86
    36.0200        66
    36.0400        72
    36.0600        54
    36.0800        46
    36.1000        42
    36.1200        38
    36.1400        34
    36.1600        44
    36.1800        44
    36.2000        42
    36.2200        40
    36.2400        38
    36.2600        40
    36.2800        32
    36.3000        26
    36.3200        24
    36.3400        42
    36.3600        40
    36.3800        38
    36.4000        32
    36.4200        36
    36.4400        38
    36.4600        34
    36.4800        34
    36.5000        34
    36.5200        34
    36.5400        28
    36.5600        40
    36.5800        36
    36.6000        34
    36.6200        36
    36.6400        36
    36.6600        32
    36.6800        34
    36.7000        52
    36.7200        26
    36.7400        30
    36.7600        44
    36.7800        34
    36.8000        38
    36.8200        42
    36.8400        30
    36.8600        46
    36.8800        44
    36.9000        32
    36.9200        30
    36.9400        48
    36.9600        38
    36.9800        30
    37.0000        40
    37.0200        36
    37.0400        34
    37.0600        34
    37.0800        46
    37.1000        62
    37.1200        58
    37.1400        48
    37.1600        52
    37.1800        60
    37.2000        68
    37.2200        68
    37.2400        82
    37.2600        94
    37.2800       116
    37.3000       110
    37.3200       138
    37.3400       124
    37.3600       152
    37.3800       130
    37.4000       142
    37.4200       134
    37.4400       112
    37.4600       118
    37.4800        96
    37.5000        86
    37.5200        76
    37.5400        56
    37.5600        58
    37.5800        62
    37.6000        38
    37.6200        54
    37.6400        44
    37.6600        44
    37.6800        38
    37.7000        40
    37.7200        62
    37.7400        32
    37.7600        40
    37.7800        42
    37.8000        46
    37.8200        46
    37.8400        50
    37.8600        54
    37.8800        46
    37.9000        60
    37.9200        54
    37.9400        56
    37.9600        54
    37.9800        60
    38.0000        38
    38.0200        64
    38.0400        52
    38.0600        40
    38.0800        30
    38.1000        50
    38.1200        30
    38.1400        38
    38.1600        40
    38.1800        48
    38.2000        34
    38.2200        34
    38.2400        36
    38.2600        34
    38.2800        36
    38.3000        32
    38.3200        28
    38.3400        26
    38.3600        34
    38.3800        40
    38.4000        44
    38.4200        32
    38.4400        42
    38.4600        36
    38.4800        32
    38.5000        50
    38.5200        30
    38.5400        34
    38.5600        40
    38.5800        42
    38.6000        44
    38.6200        38
    38.6400        40
    38.6600        44
    38.6800        42
    38.7000        32
    38.7200        32
    38.7400        38
    38.7600        36
    38.7800        46
    38.8000        36
    38.8200        26
    38.8400        28
    38.8600        34
    38.8800        52
    38.9000        28
    38.9200        30
    38.9400        40
    38.9600        52
    38.9800        28
    39.0000        34
    39.0200        36
    39.0400        44
    39.0600        34
    39.0800        42
    39.1000        40
    39.1200        54
    39.1400        42
    39.1600        38
    39.1800        44
    39.2000        52
    39.2200        48
    39.2400        56
    39.2600        58
    39.2800        88
    39.3000        96
    39.3200       100
    39.3400        86
    39.3600        98
    39.3800        88
    39.4000        82
    39.4200        86
    39.4400       100
    39.4600       100
    39.4800        98
    39.5000       106
    39.5200       102
    39.5400        84
    39.5600        82
    39.5800        54
    39.6000        68
    39.6200        54
    39.6400        44
    39.6600        50
    39.6800        32
    39.7000        38
    39.7200        28
    39.7400        48
    39.7600        40
    39.7800        32
    39.8000        24
    39.8200        24
    39.8400        30
    39.8600        40
    39.8800        42
    39.9000        30
    39.9200        38
    39.9400        32
    39.9600        22
    39.9800        46
    40.0000        36
    40.0200        28
    40.0400        32
    40.0600        30
    40.0800        38
    40.1000        30
    40.1200        22
    40.1400        44
    40.1600        32
    40.1800        30
    40.2000        24
    40.2200        32
    40.2400        32
    40.2600        30
    40.2800        42
    40.3000        40
    40.3200        28
    40.3400        22
    40.3600        36
    40.3800        38
    40.4000        40
    40.4200        32
    40.4400        40
    40.4600        46
    40.4800        44
    40.5000        38
    40.5200        44
    40.5400        44
    40.5600        62
    40.5800        76
    40.6000        48
    40.6200        54
    40.6400        56
    40.6600        52
    40.6800        52
    40.7000        38
    40.7200        48
    40.7400        32
    40.7600        42
    40.7800        32
    40.8000        34
    40.8200        30
    40.8400        28
    40.8600        40
    40.8800        36
    40.9000        48
    40.9200        44
    40.9400        28
    40.9600        44
    40.9800        36
    41.0000        52
    41.0200        36
    41.0400        54
    41.0600        42
    41.0800        44
    41.1000        46
    41.1200        40
    41.1400        30
    41.1600        38
    41.1800        40
    41.2000        42
    41.2200        28
    41.2400        46
    41.2600        30
    41.2800        42
    41.3000        38
    41.3200        40
    41.3400        40
    41.3600        40
    41.3800        54
    41.4000        40
    41.4200        50
    41.4400        56
    41.4600        54
    41.4800        54
    41.5000        42
    41.5200        48
    41.5400        46
    41.5600        30
    41.5800        40
    41.6000        46
    41.6200        34
    41.6400        40
    41.6600        30
    41.6800        42
    41.7000        32
    41.7200        32
    41.7400        44
    41.7600        40
    41.7800        30
    41.8000        44
    41.8200        48
    41.8400        36
    41.8600        40
    41.8800        40
    41.9000        42
    41.9200        54
    41.9400        40
    41.9600        26
    41.9800        52
    42.0000        34
    42.0200        44
    42.0400        40
    42.0600        40
    42.0800        36
    42.1000        26
    42.1200        42
    42.1400        46
    42.1600        34
    42.1800        34
    42.2000        34
    42.2200        36
    42.2400        26
    42.2600        30
    42.2800        42
    42.3000        34
    42.3200        28
    42.3400        28
    42.3600        28
    42.3800        38
    42.4000        28
    42.4200        52
    42.4400        28
    42.4600        32
    42.4800        36
    42.5000        34
    42.5200        30
    42.5400        32
    42.5600        30
    42.5800        32
    42.6000        44
    42.6200        28
    42.6400        34
    42.6600        34
    42.6800        36
    42.7000        48
    42.7200        20
    42.7400        30
    42.7600        34
    42.7800        36
    42.8000        32
    42.8200        34
    42.8400        38
    42.8600        38
    42.8800        30
    42.9000        44
    42.9200        34
    42.9400        24
    42.9600        32
    42.9800        32
    43.0000        36
    43.0200        32
    43.0400        40
    43.0600        32
    43.0800        32
    43.1000        36
    43.1200        44
    43.1400        48
    43.1600        56
    43.1800        44
    43.2000        44
    43.2200        42
    43.2400        54
    43.2600        48
    43.2800        66
    43.3000        68
    43.3200        84
    43.3400        80
    43.3600        78
    43.3800        80
    43.4000        60
    43.4200        60
    43.4400        60
    43.4600        44
    43.4800        54
    43.5000        68
    43.5200        56
    43.5400        64
    43.5600        56
    43.5800        74
    43.6000        78
    43.6200        92
    43.6400        96
    43.6600        80
    43.6800        92
    43.7000        86
    43.7200        80
    43.7400        60
    43.7600        72
    43.7800        76
    43.8000        56
    43.8200        54
    43.8400        52
    43.8600        60
    43.8800        42
    43.9000        34
    43.9200        38
    43.9400        38
    43.9600        46
    43.9800        42
    44.0000        50
    44.0200        42
    44.0400        40
    44.0600        24
    44.0800        30
    44.1000        36
    44.1200        32
    44.1400        44
    44.1600        38
    44.1800        44
    44.2000        34
    44.2200        40
    44.2400        24
    44.2600        38
    44.2800        40
    44.3000        46
    44.3200        40
    44.3400        40
    44.3600        38
    44.3800        60
    44.4000        54
    44.4200        56
    44.4400        46
    44.4600        58
    44.4800        80
    44.5000        60
    44.5200        72
    44.5400        72
    44.5600        50
    44.5800        64
    44.6000        60
    44.6200        66
    44.6400        46
    44.6600        60
    44.6800        44
    44.7000        34
    44.7200        60
    44.7400        44
    44.7600        36
    44.7800        32
    44.8000        38
    44.8200        50
    44.8400        46
    44.8600        44
    44.8800        66
    44.9000        66
    44.9200        76
    44.9400        84
    44.9600       104
    44.9800       102
    45.0000       106
    45.0200       110
    45.0400        82
    45.0600        78
    45.0800        78
    45.1000        66
    45.1200        56
    45.1400        58
    45.1600        48
    45.1800        46
    45.2000        40
    45.2200        42
    45.2400        28
    45.2600        36
    45.2800        54
    45.3000        40
    45.3200        44
    45.3400        40
    45.3600        58
    45.3800        40
    45.4000        54
    45.4200        56
    45.4400        62
    45.4600        48
    45.4800        54
    45.5000        66
    45.5200        66
    45.5400        80
    45.5600        80
    45.5800        76
    45.6000        76
    45.6200        94
    45.6400        72
    45.6600        68
    45.6800        76
    45.7000        74
    45.7200        60
    45.7400        50
    45.7600        68
    45.7800        54
    45.8000        50
    45.8200        42
    45.8400        32
    45.8600        36
    45.8800        54
    45.9000        38
    45.9200        38
    45.9400        36
    45.9600        46
    45.9800        38
    46.0000        56
    46.0200        38
    46.0400        44
    46.0600        40
    46.0800        36
    46.1000        34
    46.1200        42
    46.1400        40
    46.1600        40
    46.1800        40
    46.2000        48
    46.2200        40
    46.2400        34
    46.2600        36
    46.2800        26
    46.3000        50
    46.3200        24
    46.3400        42
    46.3600        44
    46.3800        28
    46.4000        54
    46.4200        46
    46.4400        42
    46.4600        36
    46.4800        52
    46.5000        42
    46.5200        38
    46.5400        42
    46.5600        46
    46.5800        42
    46.6000        44
    46.6200        44
    46.6400        54
    46.6600        36
    46.6800        48
    46.7000        44
    46.7200        48
    46.7400        46
    46.7600        40
    46.7800        56
    46.8000        54
    46.8200        42
    46.8400        50
    46.8600        60
    46.8800        60
    46.9000        76
    46.9200        46
    46.9400        62
    46.9600        50
    46.9800        60
    47.0000        50
    47.0200        60
    47.0400        78
    47.0600        78
    47.0800        74
    47.1000        80
    47.1200        92
    47.1400        86
    47.1600        88
    47.1800        74
    47.2000        70
    47.2200        80
    47.2400        52
    47.2600        72
    47.2800        54
    47.3000        58
    47.3200        66
    47.3400        46
    47.3600        40
    47.3800        54
    47.4000        54
    47.4200        38
    47.4400        40
    47.4600        48
    47.4800        50
    47.5000        44
    47.5200        40
    47.5400        38
    47.5600        42
    47.5800        38
    47.6000        36
    47.6200        38
    47.6400        44
    47.6600        32
    47.6800        34
    47.7000        46
    47.7200        36
    47.7400        34
    47.7600        38
    47.7800        58
    47.8000        34
    47.8200        36
    47.8400        30
    47.8600        26
    47.8800        26
    47.9000        44
    47.9200        40
    47.9400        42
    47.9600        30
    47.9800        38
    48.0000        34
    48.0200        28
    48.0400        38
    48.0600        34
    48.0800        38
    48.1000        54
    48.1200        36
    48.1400        32
    48.1600        52
    48.1800        42
    48.2000        44
    48.2200        56
    48.2400        46
    48.2600        40
    48.2800        48
    48.3000        48
    48.3200        42
    48.3400        62
    48.3600        40
    48.3800        60
    48.4000        58
    48.4200        74
    48.4400        80
    48.4600        86
    48.4800        90
    48.5000       102
    48.5200        88
    48.5400       102
    48.5600        90
    48.5800        90
    48.6000       100
    48.6200        64
    48.6400        74
    48.6600        82
    48.6800        68
    48.7000        68
    48.7200        52
    48.7400        46
    48.7600        46
    48.7800        50
    48.8000        48
    48.8200        50
    48.8400        48
    48.8600        44
    48.8800        48
    48.9000        46
    48.9200        50
    48.9400        58
    48.9600        60
    48.9800        48
    49.0000        60
    49.0200        66
    49.0400        62
    49.0600        74
    49.0800        84
    49.1000        78
    49.1200       102
    49.1400       108
    49.1600        92
    49.1800       112
    49.2000       128
    49.2200       142
    49.2400       176
    49.2600       210
    49.2800       224
    49.3000       256
    49.3200       256
    49.3400       236
    49.3600       214
    49.3800       158
    49.4000       192
    49.4200       162
    49.4400       160
    49.4600       142
    49.4800       118
    49.5000        92
    49.5200        84
    49.5400        60
    49.5600        50
    49.5800        56
    49.6000        56
    49.6200        44
    49.6400        52
    49.6600        42
    49.6800        44
    49.7000        42
    49.7200        22
    49.7400        36
    49.7600        40
    49.7800        34
    49.8000        46
    49.8200        40
    49.8400        34
    49.8600        38
    49.8800        42
    49.9000        26
    49.9200        40
    49.9400        22
    49.9600        28
    49.9800        42
    50.0000        36
    50.0200        26
    50.0400        46
    50.0600        32
    50.0800        26
    50.1000        44
    50.1200        44
    50.1400        50
    50.1600        36
    50.1800        30
    50.2000        46
    50.2200        36
    50.2400        34
    50.2600        36
    50.2800        36
    50.3000        34
    50.3200        30
    50.3400        46
    50.3600        36
    50.3800        40
    50.4000        48
    50.4200        50
    50.4400        36
    50.4600        42
    50.4800        54
    50.5000        52
    50.5200        52
    50.5400        52
    50.5600        60
    50.5800        62
    50.6000        48
    50.6200        66
    50.6400        50
    50.6600        54
    50.6800        62
    50.7000        38
    50.7200        52
    50.7400        50
    50.7600        54
    50.7800        48
    50.8000        60
    50.8200        30
    50.8400        48
    50.8600        40
    50.8800        36
    50.9000        46
    50.9200        38
    50.9400        38
    50.9600        54
    50.9800        52
    51.0000        34
    51.0200        30
    51.0400        36
    51.0600        40
    51.0800        32
    51.1000        24
    51.1200        26
    51.1400        30
    51.1600        32
    51.1800        36
    51.2000        26
    51.2200        42
    51.2400        24
    51.2600        36
    51.2800        24
    51.3000        40
    51.3200        30
    51.3400        40
    51.3600        42
    51.3800        32
    51.4000        34
    51.4200        38
    51.4400        50
    51.4600        38
    51.4800        46
    51.5000        38
    51.5200        42
    51.5400        44
    51.5600        54
    51.5800        52
    51.6000        56
    51.6200        64
    51.6400        52
    51.6600        44
    51.6800        48
    51.7000        56
    51.7200        38
    51.7400        52
    51.7600        42
    51.7800        52
    51.8000        66
    51.8200        56
    51.8400        58
    51.8600        52
    51.8800        50
    51.9000        56
    51.9200        56
    51.9400        64
    51.9600        56
    51.9800        62
    52.0000        66
    52.0200        70
    52.0400        84
    52.0600        84
    52.0800        92
    52.1000        98
    52.1200       102
    52.1400       118
    52.1600       134
    52.1800       148
    52.2000       146
    52.2200       142
    52.2400       116
    52.2600       118
    52.2800       114
    52.3000       106
    52.3200       108
    52.3400        80
    52.3600        80
    52.3800        94
    52.4000        76
    52.4200        80
    52.4400        60
    52.4600        46
    52.4800        58
    52.5000        42
    52.5200        54
    52.5400        50
    52.5600        40
    52.5800        52
    52.6000        46
    52.6200        50
    52.6400        52
    52.6600        58
    52.6800        68
    52.7000        72
    52.7200        74
    52.7400        90
    52.7600       106
    52.7800       138
    52.8000       126
    52.8200       130
    52.8400       124
    52.8600       114
    52.8800       122
    52.9000       130
    52.9200       118
    52.9400       122
    52.9600       104
    52.9800       118
    53.0000       120
    53.0200        86
    53.0400        86
    53.0600        80
    53.0800        66
    53.1000        70
    53.1200        68
    53.1400        54
    53.1600        70
    53.1800        70
    53.2000        46
    53.2200        48
    53.2400        56
    53.2600        42
    53.2800        46
    53.3000        40
    53.3200        40
    53.3400        52
    53.3600        42
    53.3800        28
    53.4000        52
    53.4200        40
    53.4400        38
    53.4600        38
    53.4800        28
    53.5000        40
    53.5200        36
    53.5400        40
    53.5600        40
    53.5800        30
    53.6000        28
    53.6200        36
    53.6400        36
    53.6600        38
    53.6800        38
    53.7000        36
    53.7200        38
    53.7400        34
    53.7600        34
    53.7800        36
    53.8000        40
    53.8200        32
    53.8400        30
    53.8600        30
    53.8800        28
    53.9000        30
    53.9200        34
    53.9400        32
    53.9600        34
    53.9800        30
    54.0000        28
    54.0200        32
    54.0400        32
    54.0600        34
    54.0800        32
    54.1000        30
    54.1200        36
    54.1400        32
    54.1600        38
    54.1800        34
    54.2000        30
    54.2200        32
    54.2400        40
    54.2600        38
    54.2800        44
    54.3000        28
    54.3200        34
    54.3400        24
    54.3600        46
    54.3800        44
    54.4000        44
    54.4200        36
    54.4400        42
    54.4600        28
    54.4800        36
    54.5000        42
    54.5200        40
    54.5400        42
    54.5600        36
    54.5800        32
    54.6000        40
    54.6200        24
    54.6400        38
    54.6600        44
    54.6800        42
    54.7000        44
    54.7200        62
    54.7400        60
    54.7600        58
    54.7800        60
    54.8000        68
    54.8200        66
    54.8400        86
    54.8600        82
    54.8800        84
    54.9000        78
    54.9200       106
    54.9400        84
    54.9600        98
    54.9800       104
    55.0000       114
    55.0200        96
    55.0400       118
    55.0600        82
    55.0800        94
    55.1000        76
    55.1200        66
    55.1400        64
    55.1600        62
    55.1800        60
    55.2000        60
    55.2200        48
    55.2400        50
    55.2600        56
    55.2800        46
    55.3000        46
    55.3200        36
    55.3400        38
    55.3600        34
    55.3800        40
    55.4000        36
    55.4200        48
    55.4400        36
    55.4600        60
    55.4800        46
    55.5000        36
    55.5200        20
    55.5400        42
    55.5600        36
    55.5800        30
    55.6000        38
    55.6200        40
    55.6400        50
    55.6600        42
    55.6800        50
    55.7000        64
    55.7200        44
    55.7400        36
    55.7600        48
    55.7800        76
    55.8000        74
    55.8200        94
    55.8400        94
    55.8600       122
    55.8800       128
    55.9000       150
    55.9200       134
    55.9400       132
    55.9600       114
    55.9800        94
    56.0000        78
    56.0200        96
    56.0400        98
    56.0600        94
    56.0800       102
    56.1000        74
    56.1200        72
    56.1400        52
    56.1600        60
    56.1800        36
    56.2000        50
    56.2200        52
    56.2400        70
    56.2600        68
    56.2800        54
    56.3000        64
    56.3200        72
    56.3400        78
    56.3600        68
    56.3800        76
    56.4000        64
    56.4200        74
    56.4400        68
    56.4600        66
    56.4800        52
    56.5000        64
    56.5200        42
    56.5400        62
    56.5600        56
    56.5800        52
    56.6000        48
    56.6200        46
    56.6400        52
    56.6600        68
    56.6800        68
    56.7000        74
    56.7200        76
    56.7400        80
    56.7600       104
    56.7800        82
    56.8000        92
    56.8200        90
    56.8400        78
    56.8600        78
    56.8800        78
    56.9000        58
    56.9200        62
    56.9400        58
    56.9600        58
    56.9800        54
    57.0000        52
    57.0200        46
    57.0400        42
    57.0600        40
    57.0800        42
    57.1000        34
    57.1200        28
    57.1400        40
    57.1600        22
    57.1800        34
    57.2000        40
    57.2200        36
    57.2400        28
    57.2600        22
    57.2800        38
    57.3000        32
    57.3200        28
    57.3400        40
    57.3600        40
    57.3800        42
    57.4000        34
    57.4200        24
    57.4400        34
    57.4600        36
    57.4800        36
    57.5000        32
    57.5200        34
    57.5400        42
    57.5600        40
    57.5800        36
    57.6000        36
    57.6200        30
    57.6400        34
    57.6600        36
    57.6800        48
    57.7000        36
    57.7200        56
    57.7400        52
    57.7600        46
    57.7800        46
    57.8000        42
    57.8200        68
    57.8400        48
    57.8600        60
    57.8800        74
    57.9000        66
    57.9200        50
    57.9400        60
    57.9600        96
    57.9800        78
    58.0000        84
    58.0200       116
    58.0400       102
    58.0600       100
    58.0800       110
    58.1000       110
    58.1200       108
    58.1400       108
    58.1600        98
    58.1800       104
    58.2000       102
    58.2200        74
    58.2400        80
    58.2600        72
    58.2800        96
    58.3000        86
    58.3200        74
    58.3400        56
    58.3600        62
    58.3800        54
    58.4000        56
    58.4200        44
    58.4400        36
    58.4600        42
    58.4800        40
    58.5000        44
    58.5200        38
    58.5400        38
    58.5600        44
    58.5800        28
    58.6000        38
    58.6200        46
    58.6400        34
    58.6600        32
    58.6800        36
    58.7000        30
    58.7200        38
    58.7400        34
    58.7600        30
    58.7800        36
    58.8000        44
    58.8200        30
    58.8400        28
    58.8600        34
    58.8800        34
    58.9000        36
    58.9200        32
    58.9400        48
    58.9600        30
    58.9800        34
    59.0000        28
    59.0200        24
    59.0400        32
    59.0600        34
    59.0800        40
    59.1000        32
    59.1200        38
    59.1400        42
    59.1600        44
    59.1800        50
    59.2000        58
    59.2200        46
    59.2400        76
    59.2600        60
    59.2800        58
    59.3000        56
    59.3200        52
    59.3400        30
    59.3600        42
    59.3800        42
    59.4000        58
    59.4200        46
    59.4400        46
    59.4600        50
    59.4800        42
    59.5000        42
    59.5200        46
    59.5400        48
    59.5600        44
    59.5800        64
    59.6000        60
    59.6200        60
    59.6400        40
    59.6600        44
    59.6800        48
    59.7000        40
    59.7200        52
    59.7400        40
    59.7600        32
    59.7800        44
    59.8000        34
    59.8200        42
    59.8400        46
    59.8600        38
    59.8800        34
    59.9000        40
    59.9200        38
    59.9400        42
    59.9600        34
    59.9800        52
    60.0000        38
    60.0200        42
    60.0400        40
    60.0600        42
    60.0800        50
    60.1000        50
    60.1200        50
    60.1400        48
    60.1600        56
    60.1800        54
    60.2000        50
    60.2200        46
    60.2400        52
    60.2600        38
    60.2800        32
    60.3000        40
    60.3200        50
    60.3400        38
    60.3600        52
    60.3800        46
    60.4000        38
    60.4200        30
    60.4400        34
    60.4600        48
    60.4800        32
    60.5000        36
    60.5200        38
    60.5400        28
    60.5600        36
    60.5800        26
    60.6000        28
    60.6200        42
    60.6400        36
    60.6600        44
    60.6800        18
    60.7000        34
    60.7200        30
    60.7400        36
    60.7600        36
    60.7800        52
    60.8000        42
    60.8200        32
    60.8400        30
    60.8600        34
    60.8800        26
    60.9000        44
    60.9200        38
    60.9400        32
    60.9600        26
    60.9800        40
    61.0000        30
    61.0200        40
    61.0400        40
    61.0600        38
    61.0800        48
    61.1000        42
    61.1200        18
    61.1400        34
    61.1600        26
    61.1800        30
    61.2000        32
    61.2200        34
    61.2400        30
    61.2600        20
    61.2800        30
    61.3000        28
    61.3200        38
    61.3400        26
    61.3600        30
    61.3800        28
    61.4000        32
    61.4200        34
    61.4400        34
    61.4600        36
    61.4800        28
    61.5000        26
    61.5200        34
    61.5400        36
    61.5600        30
    61.5800        30
    61.6000        28
    61.6200        28
    61.6400        40
    61.6600        32
    61.6800        26
    61.7000        36
    61.7200        36
    61.7400        30
    61.7600        38
    61.7800        40
    61.8000        30
    61.8200        40
    61.8400        56
    61.8600        48
    61.8800        56
    61.9000        50
    61.9200        44
    61.9400        44
    61.9600        50
    61.9800        56
    62.0000        38
    62.0200        48
    62.0400        50
    62.0600        50
    62.0800        56
    62.1000        54
    62.1200        64
    62.1400        52
    62.1600        54
    62.1800        40
    62.2000        58
    62.2200        42
    62.2400        50
    62.2600        40
    62.2800        46
    62.3000        54
    62.3200        46
    62.3400        62
    62.3600        46
    62.3800        68
    62.4000        64
    62.4200        58
    62.4400        42
    62.4600        68
    62.4800        58
    62.5000        70
    62.5200        66
    62.5400        50
    62.5600        54
    62.5800        56
    62.6000        64
    62.6200        52
    62.6400        62
    62.6600        56
    62.6800        44
    62.7000        54
    62.7200        48
    62.7400        36
    62.7600        44
    62.7800        26
    62.8000        32
    62.8200        38
    62.8400        22
    62.8600        28
    62.8800        48
    62.9000        34
    62.9200        36
    62.9400        34
    62.9600        36
    62.9800        44
    63.0000        30
    63.0200        36
    63.0400        34
    63.0600        28
    63.0800        36
    63.1000        40
    63.1200        38
    63.1400        30
    63.1600        28
    63.1800        30
    63.2000        32
    63.2200        40
    63.2400        36
    63.2600        26
    63.2800        20
    63.3000        42
    63.3200        34
    63.3400        20
    63.3600        36
    63.3800        38
    63.4000        46
    63.4200        50
    63.4400        46
    63.4600        70
    63.4800        42
    63.5000        70
    63.5200        60
    63.5400        64
    63.5600        48
    63.5800        72
    63.6000        42
    63.6200        32
    63.6400        46
    63.6600        64
    63.6800        72
    63.7000        68
    63.7200        86
    63.7400        68
    63.7600        60
    63.7800        64
    63.8000        56
    63.8200        58
    63.8400        58
    63.8600        46
    63.8800        56
    63.9000        56
    63.9200        62
    63.9400        62
    63.9600        48
    63.9800        46
    64.0000        52
    64.0200        44
    64.0400        46
    64.0600        42
    64.0800        44
    64.1000        48
    64.1200        48
    64.1400        38
    64.1600        50
    64.1800        38
    64.2000        28
    64.2200        36
    64.2400        26
    64.2600        38
    64.2800        50
    64.3000        34
    64.3200        32
    64.3400        46
    64.3600        24
    64.3800        26
    64.4000        32
    64.4200        30
    64.4400        32
    64.4600        34
    64.4800        22
    64.5000        34
    64.5200        44
    64.5400        44
    64.5600        20
    64.5800        40
    64.6000        34
    64.6200        42
    64.6400        32
    64.6600        30
    64.6800        36
    64.7000        54
    64.7200        34
    64.7400        30
    64.7600        34
    64.7800        42
    64.8000        46
    64.8200        28
    64.8400        50
    64.8600        46
    64.8800        56
    64.9000        52
    64.9200        46
    64.9400        60
    64.9600        46
    64.9800        62
    65.0000        60
