/////////////////////////////////////////////////////////////////////////////////
/// Profile Data Ascii Dump (XRD)                                             ///
/////////////////////////////////////////////////////////////////////////////////

  Group     : Swayze
  Data      : GDS37A
  File Name : GDS37A.RAW

# Profile Datafile
          comment             = Scapolite grp 
          date & time         = 08-03-27 06:14:48 

# Measurement Condition
    X-ray tube
          target              = Cu 
          voltage             = 40.0 (kV)
          current             = 30.0 (mA)
    Slits
          divergence slit     = 2.00000 (deg) 
          scatter slit        = 2.00000 (deg) 
          receiving slit      = 0.15000 (mm)  
    Scanning
          drive axis          = Theta-2Theta 
          scan range          =    4.000 -   65.000 
          scan mode           = Continuous Scan 
          scan speed          =   2.0000 (deg/min) 
          sampling pitch      =   0.0200 (deg) 
          preset time         =   0.60 (sec) 

# Data      [ Total No. = 3051 ]
  <2Theta>   <   I   >
     4.0000       208
     4.0200       200
     4.0400       192
     4.0600       186
     4.0800       172
     4.1000       190
     4.1200       192
     4.1400       188
     4.1600       168
     4.1800       198
     4.2000       184
     4.2200       168
     4.2400       202
     4.2600       174
     4.2800       186
     4.3000       172
     4.3200       168
     4.3400       198
     4.3600       188
     4.3800       174
     4.4000       170
     4.4200       160
     4.4400       160
     4.4600       152
     4.4800       154
     4.5000       182
     4.5200       190
     4.5400       156
     4.5600       146
     4.5800       144
     4.6000       180
     4.6200       186
     4.6400       164
     4.6600       156
     4.6800       160
     4.7000       168
     4.7200       136
     4.7400       166
     4.7600       152
     4.7800       168
     4.8000       158
     4.8200       150
     4.8400       144
     4.8600       156
     4.8800       166
     4.9000       162
     4.9200       156
     4.9400       154
     4.9600       174
     4.9800       150
     5.0000       146
     5.0200       148
     5.0400       152
     5.0600       152
     5.0800       154
     5.1000       150
     5.1200       160
     5.1400       158
     5.1600       150
     5.1800       156
     5.2000       138
     5.2200       158
     5.2400       166
     5.2600       158
     5.2800       138
     5.3000       154
     5.3200       160
     5.3400       144
     5.3600       154
     5.3800       156
     5.4000       150
     5.4200       176
     5.4400       152
     5.4600       138
     5.4800       146
     5.5000       152
     5.5200       164
     5.5400       164
     5.5600       162
     5.5800       146
     5.6000       158
     5.6200       130
     5.6400       180
     5.6600       140
     5.6800       152
     5.7000       148
     5.7200       154
     5.7400       136
     5.7600       190
     5.7800       148
     5.8000       168
     5.8200       132
     5.8400       154
     5.8600       158
     5.8800       156
     5.9000       166
     5.9200       162
     5.9400       170
     5.9600       176
     5.9800       146
     6.0000       148
     6.0200       152
     6.0400       176
     6.0600       174
     6.0800       170
     6.1000       170
     6.1200       152
     6.1400       140
     6.1600       140
     6.1800       150
     6.2000       168
     6.2200       154
     6.2400       148
     6.2600       144
     6.2800       160
     6.3000       160
     6.3200       124
     6.3400       132
     6.3600       148
     6.3800       134
     6.4000       152
     6.4200       138
     6.4400       134
     6.4600       142
     6.4800       130
     6.5000       162
     6.5200       138
     6.5400       136
     6.5600       138
     6.5800       120
     6.6000       128
     6.6200       126
     6.6400       126
     6.6600       138
     6.6800       146
     6.7000       140
     6.7200       148
     6.7400       118
     6.7600       128
     6.7800       120
     6.8000       148
     6.8200       136
     6.8400       116
     6.8600       130
     6.8800       124
     6.9000       128
     6.9200       140
     6.9400       138
     6.9600       138
     6.9800       144
     7.0000       114
     7.0200       116
     7.0400       144
     7.0600       120
     7.0800       132
     7.1000       120
     7.1200       132
     7.1400       144
     7.1600       114
     7.1800       108
     7.2000       106
     7.2200       116
     7.2400       126
     7.2600       124
     7.2800       106
     7.3000       110
     7.3200       118
     7.3400        92
     7.3600       128
     7.3800       110
     7.4000       128
     7.4200       112
     7.4400       100
     7.4600       100
     7.4800        92
     7.5000       134
     7.5200       108
     7.5400       102
     7.5600       122
     7.5800       126
     7.6000       106
     7.6200       124
     7.6400       108
     7.6600       118
     7.6800       100
     7.7000        98
     7.7200       108
     7.7400       118
     7.7600       104
     7.7800       124
     7.8000       130
     7.8200        94
     7.8400       116
     7.8600       120
     7.8800       102
     7.9000       112
     7.9200       110
     7.9400       108
     7.9600       116
     7.9800       118
     8.0000       110
     8.0200       110
     8.0400       116
     8.0600        86
     8.0800       118
     8.1000        96
     8.1200       130
     8.1400        90
     8.1600       104
     8.1800       118
     8.2000       104
     8.2200       108
     8.2400       130
     8.2600       116
     8.2800       118
     8.3000        96
     8.3200       108
     8.3400       120
     8.3600       114
     8.3800       102
     8.4000       132
     8.4200        94
     8.4400       114
     8.4600       104
     8.4800       114
     8.5000       116
     8.5200       114
     8.5400       132
     8.5600       108
     8.5800       110
     8.6000       134
     8.6200       114
     8.6400       120
     8.6600       110
     8.6800       114
     8.7000       112
     8.7200       112
     8.7400       138
     8.7600       130
     8.7800       118
     8.8000       100
     8.8200       112
     8.8400       114
     8.8600       120
     8.8800       112
     8.9000       110
     8.9200       100
     8.9400       118
     8.9600        98
     8.9800       142
     9.0000       116
     9.0200       102
     9.0400       118
     9.0600       104
     9.0800       112
     9.1000       118
     9.1200       112
     9.1400        98
     9.1600        96
     9.1800       126
     9.2000       120
     9.2200       114
     9.2400       106
     9.2600       110
     9.2800       124
     9.3000       114
     9.3200       132
     9.3400       112
     9.3600       126
     9.3800       124
     9.4000       122
     9.4200       116
     9.4400       112
     9.4600       122
     9.4800       118
     9.5000       114
     9.5200       120
     9.5400       102
     9.5600       102
     9.5800       102
     9.6000        88
     9.6200       112
     9.6400       110
     9.6600       110
     9.6800       108
     9.7000       116
     9.7200       110
     9.7400       106
     9.7600       106
     9.7800       132
     9.8000       108
     9.8200        96
     9.8400        86
     9.8600       132
     9.8800       110
     9.9000       120
     9.9200       108
     9.9400       110
     9.9600       124
     9.9800       106
    10.0000       104
    10.0200       102
    10.0400       108
    10.0600       136
    10.0800       122
    10.1000       120
    10.1200       108
    10.1400       138
    10.1600       126
    10.1800       144
    10.2000       128
    10.2200       136
    10.2400       138
    10.2600       126
    10.2800       140
    10.3000       130
    10.3200       128
    10.3400       110
    10.3600       116
    10.3800       110
    10.4000       104
    10.4200       100
    10.4400       100
    10.4600       114
    10.4800        88
    10.5000       102
    10.5200       116
    10.5400       120
    10.5600        96
    10.5800       108
    10.6000       102
    10.6200        88
    10.6400       102
    10.6600        98
    10.6800        92
    10.7000       104
    10.7200        94
    10.7400       104
    10.7600        82
    10.7800        88
    10.8000       100
    10.8200       108
    10.8400       102
    10.8600        98
    10.8800        82
    10.9000        90
    10.9200        74
    10.9400       104
    10.9600        94
    10.9800        96
    11.0000        88
    11.0200       102
    11.0400        94
    11.0600        94
    11.0800        94
    11.1000        86
    11.1200        74
    11.1400        76
    11.1600        88
    11.1800        94
    11.2000        94
    11.2200        84
    11.2400        86
    11.2600        94
    11.2800        84
    11.3000        78
    11.3200        92
    11.3400       104
    11.3600        86
    11.3800        92
    11.4000        98
    11.4200        84
    11.4400        74
    11.4600        80
    11.4800        84
    11.5000        76
    11.5200        84
    11.5400        90
    11.5600       100
    11.5800        84
    11.6000        84
    11.6200        92
    11.6400        82
    11.6600       112
    11.6800        84
    11.7000        90
    11.7200        86
    11.7400        84
    11.7600        74
    11.7800        78
    11.8000        86
    11.8200        86
    11.8400        98
    11.8600        94
    11.8800        84
    11.9000        86
    11.9200        94
    11.9400        88
    11.9600        88
    11.9800        90
    12.0000        86
    12.0200        84
    12.0400        80
    12.0600        80
    12.0800        96
    12.1000        82
    12.1200        84
    12.1400        82
    12.1600        86
    12.1800        96
    12.2000        80
    12.2200        76
    12.2400        68
    12.2600        70
    12.2800        80
    12.3000        70
    12.3200        88
    12.3400        92
    12.3600        80
    12.3800        80
    12.4000       100
    12.4200        78
    12.4400        94
    12.4600        76
    12.4800        90
    12.5000        70
    12.5200        88
    12.5400        82
    12.5600        72
    12.5800        70
    12.6000        64
    12.6200        66
    12.6400       110
    12.6600        74
    12.6800        72
    12.7000        66
    12.7200        68
    12.7400        78
    12.7600        76
    12.7800        72
    12.8000        66
    12.8200        66
    12.8400        64
    12.8600        70
    12.8800        90
    12.9000        62
    12.9200        86
    12.9400        60
    12.9600        56
    12.9800        82
    13.0000        60
    13.0200        72
    13.0400        66
    13.0600        66
    13.0800        58
    13.1000        94
    13.1200        72
    13.1400        96
    13.1600        70
    13.1800        78
    13.2000        76
    13.2200        82
    13.2400        80
    13.2600        92
    13.2800        58
    13.3000        78
    13.3200       104
    13.3400        76
    13.3600       100
    13.3800        82
    13.4000        78
    13.4200        82
    13.4400        66
    13.4600        94
    13.4800       100
    13.5000       110
    13.5200        90
    13.5400        94
    13.5600        96
    13.5800       116
    13.6000       100
    13.6200       118
    13.6400       156
    13.6600       180
    13.6800       206
    13.7000       210
    13.7200       210
    13.7400       184
    13.7600       156
    13.7800       108
    13.8000       114
    13.8200        78
    13.8400        78
    13.8600        78
    13.8800        78
    13.9000        84
    13.9200        74
    13.9400        58
    13.9600        80
    13.9800        80
    14.0000        72
    14.0200        80
    14.0400        62
    14.0600        94
    14.0800        58
    14.1000        64
    14.1200        62
    14.1400        86
    14.1600        72
    14.1800        70
    14.2000        72
    14.2200        74
    14.2400        88
    14.2600        78
    14.2800        62
    14.3000       106
    14.3200        68
    14.3400        92
    14.3600        68
    14.3800        88
    14.4000        92
    14.4200        70
    14.4400        82
    14.4600        98
    14.4800       104
    14.5000       132
    14.5200       144
    14.5400       172
    14.5600       154
    14.5800       154
    14.6000       198
    14.6200       176
    14.6400       162
    14.6600       116
    14.6800       100
    14.7000        82
    14.7200        94
    14.7400        74
    14.7600        68
    14.7800        72
    14.8000        50
    14.8200        60
    14.8400        72
    14.8600        54
    14.8800        68
    14.9000        66
    14.9200        70
    14.9400        50
    14.9600        58
    14.9800        68
    15.0000        60
    15.0200        70
    15.0400        56
    15.0600        60
    15.0800        56
    15.1000        72
    15.1200        52
    15.1400        58
    15.1600        60
    15.1800        50
    15.2000        52
    15.2200        54
    15.2400        66
    15.2600        50
    15.2800        68
    15.3000        70
    15.3200        60
    15.3400        64
    15.3600        44
    15.3800        64
    15.4000        72
    15.4200        48
    15.4400        58
    15.4600        72
    15.4800        64
    15.5000        68
    15.5200        60
    15.5400        66
    15.5600        58
    15.5800        54
    15.6000        58
    15.6200        76
    15.6400        88
    15.6600        68
    15.6800        68
    15.7000        54
    15.7200        52
    15.7400        68
    15.7600        54
    15.7800        72
    15.8000        68
    15.8200        58
    15.8400        84
    15.8600        70
    15.8800        54
    15.9000        56
    15.9200        68
    15.9400        52
    15.9600        44
    15.9800        60
    16.0000        58
    16.0200        58
    16.0400        70
    16.0600        52
    16.0800        60
    16.1000        54
    16.1200        72
    16.1400        66
    16.1600        66
    16.1800        54
    16.2000        66
    16.2200        54
    16.2400        52
    16.2600        56
    16.2800        58
    16.3000        60
    16.3200        60
    16.3400        52
    16.3600        52
    16.3800        62
    16.4000        42
    16.4200        64
    16.4400        52
    16.4600        56
    16.4800        56
    16.5000        74
    16.5200        56
    16.5400        58
    16.5600        54
    16.5800        54
    16.6000        68
    16.6200        58
    16.6400        46
    16.6600        58
    16.6800        40
    16.7000        50
    16.7200        62
    16.7400        50
    16.7600        38
    16.7800        58
    16.8000        50
    16.8200        62
    16.8400        48
    16.8600        66
    16.8800        68
    16.9000        52
    16.9200        62
    16.9400        78
    16.9600        54
    16.9800        62
    17.0000        48
    17.0200        50
    17.0400        42
    17.0600        54
    17.0800        56
    17.1000        58
    17.1200        58
    17.1400        44
    17.1600        48
    17.1800        60
    17.2000        50
    17.2200        48
    17.2400        56
    17.2600        62
    17.2800        40
    17.3000        52
    17.3200        60
    17.3400        54
    17.3600        46
    17.3800        56
    17.4000        52
    17.4200        66
    17.4400        72
    17.4600        56
    17.4800        54
    17.5000        56
    17.5200        50
    17.5400        62
    17.5600        64
    17.5800        54
    17.6000        44
    17.6200        46
    17.6400        50
    17.6600        68
    17.6800        52
    17.7000        56
    17.7200        68
    17.7400        48
    17.7600        52
    17.7800        46
    17.8000        50
    17.8200        58
    17.8400        56
    17.8600        50
    17.8800        68
    17.9000        46
    17.9200        62
    17.9400        56
    17.9600        38
    17.9800        54
    18.0000        56
    18.0200        72
    18.0400        58
    18.0600        54
    18.0800        40
    18.1000        64
    18.1200        62
    18.1400        70
    18.1600        54
    18.1800        46
    18.2000        38
    18.2200        52
    18.2400        46
    18.2600        60
    18.2800        44
    18.3000        58
    18.3200        62
    18.3400        48
    18.3600        50
    18.3800        60
    18.4000        48
    18.4200        50
    18.4400        62
    18.4600        50
    18.4800        62
    18.5000        44
    18.5200        58
    18.5400        60
    18.5600        48
    18.5800        54
    18.6000        48
    18.6200        68
    18.6400        60
    18.6600        60
    18.6800        48
    18.7000        62
    18.7200        56
    18.7400        64
    18.7600        50
    18.7800        54
    18.8000        68
    18.8200        44
    18.8400        52
    18.8600        48
    18.8800        68
    18.9000        50
    18.9200        52
    18.9400        52
    18.9600        48
    18.9800        58
    19.0000        42
    19.0200        48
    19.0400        44
    19.0600        56
    19.0800        54
    19.1000        48
    19.1200        60
    19.1400        58
    19.1600        48
    19.1800        52
    19.2000        52
    19.2200        52
    19.2400        56
    19.2600        50
    19.2800        50
    19.3000        42
    19.3200        42
    19.3400        60
    19.3600        50
    19.3800        36
    19.4000        52
    19.4200        52
    19.4400        58
    19.4600        50
    19.4800        42
    19.5000        46
    19.5200        46
    19.5400        50
    19.5600        48
    19.5800        50
    19.6000        50
    19.6200        52
    19.6400        40
    19.6600        48
    19.6800        50
    19.7000        50
    19.7200        36
    19.7400        50
    19.7600        42
    19.7800        56
    19.8000        42
    19.8200        58
    19.8400        52
    19.8600        44
    19.8800        64
    19.9000        70
    19.9200        54
    19.9400        74
    19.9600        58
    19.9800        84
    20.0000        68
    20.0200        80
    20.0400        94
    20.0600        94
    20.0800       112
    20.1000       112
    20.1200        80
    20.1400        98
    20.1600        80
    20.1800        76
    20.2000        60
    20.2200        60
    20.2400        48
    20.2600        60
    20.2800        44
    20.3000        64
    20.3200        50
    20.3400        54
    20.3600        54
    20.3800        52
    20.4000        58
    20.4200        58
    20.4400        64
    20.4600        46
    20.4800        54
    20.5000        56
    20.5200        74
    20.5400        92
    20.5600        76
    20.5800        72
    20.6000        64
    20.6200        86
    20.6400        88
    20.6600       100
    20.6800       126
    20.7000       138
    20.7200       126
    20.7400       126
    20.7600       112
    20.7800       100
    20.8000        82
    20.8200        62
    20.8400        74
    20.8600        50
    20.8800        58
    20.9000        58
    20.9200        66
    20.9400        44
    20.9600        68
    20.9800        48
    21.0000        54
    21.0200        42
    21.0400        54
    21.0600        44
    21.0800        36
    21.1000        48
    21.1200        38
    21.1400        44
    21.1600        38
    21.1800        48
    21.2000        48
    21.2200        50
    21.2400        56
    21.2600        58
    21.2800        70
    21.3000        38
    21.3200        52
    21.3400        42
    21.3600        46
    21.3800        52
    21.4000        54
    21.4200        50
    21.4400        52
    21.4600        56
    21.4800        34
    21.5000        42
    21.5200        44
    21.5400        58
    21.5600        46
    21.5800        54
    21.6000        46
    21.6200        42
    21.6400        60
    21.6600        32
    21.6800        54
    21.7000        38
    21.7200        54
    21.7400        40
    21.7600        38
    21.7800        48
    21.8000        58
    21.8200        62
    21.8400        58
    21.8600        56
    21.8800        56
    21.9000        48
    21.9200        42
    21.9400        54
    21.9600        62
    21.9800        56
    22.0000        56
    22.0200        40
    22.0400        38
    22.0600        44
    22.0800        42
    22.1000        50
    22.1200        58
    22.1400        52
    22.1600        48
    22.1800        48
    22.2000        56
    22.2200        60
    22.2400        46
    22.2600        44
    22.2800        52
    22.3000        44
    22.3200        46
    22.3400        54
    22.3600        50
    22.3800        64
    22.4000        44
    22.4200        38
    22.4400        48
    22.4600        38
    22.4800        46
    22.5000        58
    22.5200        58
    22.5400        46
    22.5600        52
    22.5800        48
    22.6000        44
    22.6200        52
    22.6400        48
    22.6600        46
    22.6800        60
    22.7000        52
    22.7200        44
    22.7400        64
    22.7600        56
    22.7800        58
    22.8000        72
    22.8200        76
    22.8400        96
    22.8600        82
    22.8800        90
    22.9000        98
    22.9200        88
    22.9400        88
    22.9600       110
    22.9800       114
    23.0000       118
    23.0200       120
    23.0400       140
    23.0600       210
    23.0800       220
    23.1000       284
    23.1200       408
    23.1400       682
    23.1600      1054
    23.1800      1136
    23.2000      1262
    23.2200      1352
    23.2400      1200
    23.2600       932
    23.2800       688
    23.3000       532
    23.3200       304
    23.3400       166
    23.3600       124
    23.3800        80
    23.4000        70
    23.4200        64
    23.4400        64
    23.4600        60
    23.4800        62
    23.5000        50
    23.5200        52
    23.5400        50
    23.5600        42
    23.5800        44
    23.6000        38
    23.6200        44
    23.6400        62
    23.6600        52
    23.6800        56
    23.7000        54
    23.7200        78
    23.7400        58
    23.7600        56
    23.7800        56
    23.8000        58
    23.8200        78
    23.8400        46
    23.8600        48
    23.8800        76
    23.9000        62
    23.9200        38
    23.9400        46
    23.9600        48
    23.9800        46
    24.0000        50
    24.0200        40
    24.0400        56
    24.0600        34
    24.0800        40
    24.1000        48
    24.1200        58
    24.1400        48
    24.1600        32
    24.1800        44
    24.2000        48
    24.2200        46
    24.2400        42
    24.2600        52
    24.2800        32
    24.3000        42
    24.3200        54
    24.3400        36
    24.3600        54
    24.3800        52
    24.4000        62
    24.4200        58
    24.4400        42
    24.4600        70
    24.4800        50
    24.5000        52
    24.5200        68
    24.5400        52
    24.5600        56
    24.5800        52
    24.6000        60
    24.6200        54
    24.6400        58
    24.6600        62
    24.6800        66
    24.7000        76
    24.7200        70
    24.7400        76
    24.7600       104
    24.7800       120
    24.8000       104
    24.8200       158
    24.8400       188
    24.8600       236
    24.8800       266
    24.9000       266
    24.9200       342
    24.9400       370
    24.9600       394
    24.9800       370
    25.0000       346
    25.0200       314
    25.0400       220
    25.0600       186
    25.0800       140
    25.1000       128
    25.1200        92
    25.1400        88
    25.1600        90
    25.1800       108
    25.2000        88
    25.2200        90
    25.2400       126
    25.2600       184
    25.2800       122
    25.3000       126
    25.3200       158
    25.3400       182
    25.3600       170
    25.3800       196
    25.4000       292
    25.4200       416
    25.4400       494
    25.4600       712
    25.4800       844
    25.5000      1040
    25.5200      1624
    25.5400      2114
    25.5600      2470
    25.5800      2402
    25.6000      2196
    25.6200      2108
    25.6400      1730
    25.6600      1162
    25.6800       818
    25.7000       576
    25.7200       382
    25.7400       202
    25.7600       150
    25.7800       116
    25.8000        96
    25.8200        98
    25.8400        90
    25.8600        80
    25.8800        82
    25.9000        66
    25.9200        58
    25.9400        52
    25.9600        72
    25.9800        64
    26.0000        48
    26.0200        50
    26.0400        60
    26.0600        48
    26.0800        66
    26.1000        42
    26.1200        36
    26.1400        52
    26.1600        42
    26.1800        42
    26.2000        46
    26.2200        48
    26.2400        36
    26.2600        54
    26.2800        46
    26.3000        52
    26.3200        40
    26.3400        44
    26.3600        46
    26.3800        44
    26.4000        42
    26.4200        56
    26.4400        56
    26.4600        46
    26.4800        50
    26.5000        42
    26.5200        42
    26.5400        52
    26.5600        44
    26.5800        50
    26.6000        42
    26.6200        52
    26.6400        54
    26.6600        46
    26.6800        56
    26.7000        46
    26.7200        34
    26.7400        38
    26.7600        50
    26.7800        44
    26.8000        48
    26.8200        34
    26.8400        36
    26.8600        46
    26.8800        36
    26.9000        40
    26.9200        46
    26.9400        22
    26.9600        40
    26.9800        40
    27.0000        36
    27.0200        50
    27.0400        44
    27.0600        42
    27.0800        42
    27.1000        44
    27.1200        48
    27.1400        32
    27.1600        40
    27.1800        48
    27.2000        36
    27.2200        50
    27.2400        46
    27.2600        38
    27.2800        40
    27.3000        36
    27.3200        40
    27.3400        54
    27.3600        44
    27.3800        56
    27.4000        56
    27.4200        52
    27.4400        44
    27.4600        46
    27.4800        44
    27.5000        42
    27.5200        44
    27.5400        46
    27.5600        48
    27.5800        48
    27.6000        66
    27.6200        72
    27.6400        68
    27.6600        62
    27.6800        60
    27.7000        78
    27.7200        64
    27.7400        62
    27.7600        50
    27.7800        50
    27.8000        48
    27.8200        54
    27.8400        48
    27.8600        42
    27.8800        38
    27.9000        40
    27.9200        40
    27.9400        36
    27.9600        40
    27.9800        50
    28.0000        46
    28.0200        48
    28.0400        52
    28.0600        36
    28.0800        46
    28.1000        36
    28.1200        40
    28.1400        40
    28.1600        58
    28.1800        48
    28.2000        56
    28.2200        54
    28.2400        44
    28.2600        46
    28.2800        44
    28.3000        52
    28.3200        44
    28.3400        44
    28.3600        48
    28.3800        30
    28.4000        44
    28.4200        50
    28.4400        40
    28.4600        48
    28.4800        42
    28.5000        46
    28.5200        48
    28.5400        54
    28.5600        56
    28.5800        66
    28.6000        50
    28.6200        46
    28.6400        72
    28.6600        54
    28.6800        74
    28.7000        90
    28.7200        88
    28.7400        92
    28.7600        92
    28.7800       100
    28.8000       142
    28.8200       162
    28.8400       204
    28.8600       208
    28.8800       292
    28.9000       370
    28.9200       396
    28.9400       628
    28.9600       788
    28.9800       912
    29.0000      1060
    29.0200      1246
    29.0400      1152
    29.0600      1038
    29.0800      1288
    29.1000      1034
    29.1200       702
    29.1400       568
    29.1600       488
    29.1800       372
    29.2000       236
    29.2200       172
    29.2400       146
    29.2600       124
    29.2800       110
    29.3000       154
    29.3200       170
    29.3400       184
    29.3600       206
    29.3800       348
    29.4000       486
    29.4200       700
    29.4400       672
    29.4600       778
    29.4800      1040
    29.5000      1198
    29.5200       864
    29.5400       620
    29.5600       568
    29.5800       570
    29.6000       330
    29.6200       194
    29.6400       106
    29.6600        90
    29.6800        72
    29.7000        72
    29.7200        70
    29.7400        52
    29.7600        46
    29.7800        52
    29.8000        52
    29.8200        46
    29.8400        62
    29.8600        48
    29.8800        40
    29.9000        42
    29.9200        34
    29.9400        44
    29.9600        40
    29.9800        38
    30.0000        34
    30.0200        56
    30.0400        32
    30.0600        28
    30.0800        36
    30.1000        42
    30.1200        32
    30.1400        50
    30.1600        42
    30.1800        30
    30.2000        54
    30.2200        36
    30.2400        44
    30.2600        28
    30.2800        42
    30.3000        44
    30.3200        44
    30.3400        40
    30.3600        38
    30.3800        40
    30.4000        40
    30.4200        42
    30.4400        34
    30.4600        38
    30.4800        24
    30.5000        32
    30.5200        44
    30.5400        34
    30.5600        28
    30.5800        36
    30.6000        22
    30.6200        34
    30.6400        22
    30.6600        28
    30.6800        34
    30.7000        36
    30.7200        42
    30.7400        44
    30.7600        26
    30.7800        32
    30.8000        40
    30.8200        36
    30.8400        42
    30.8600        32
    30.8800        46
    30.9000        42
    30.9200        32
    30.9400        28
    30.9600        40
    30.9800        34
    31.0000        36
    31.0200        36
    31.0400        40
    31.0600        44
    31.0800        34
    31.1000        36
    31.1200        34
    31.1400        50
    31.1600        52
    31.1800        56
    31.2000        70
    31.2200        82
    31.2400       104
    31.2600       132
    31.2800       188
    31.3000       230
    31.3200       270
    31.3400       176
    31.3600       202
    31.3800       206
    31.4000       182
    31.4200       178
    31.4400       154
    31.4600       118
    31.4800       102
    31.5000        92
    31.5200        74
    31.5400        96
    31.5600        74
    31.5800        54
    31.6000        38
    31.6200        40
    31.6400        60
    31.6600        48
    31.6800        46
    31.7000        44
    31.7200        48
    31.7400        38
    31.7600        40
    31.7800        36
    31.8000        32
    31.8200        44
    31.8400        36
    31.8600        32
    31.8800        38
    31.9000        40
    31.9200        50
    31.9400        40
    31.9600        42
    31.9800        36
    32.0000        32
    32.0200        42
    32.0400        36
    32.0600        50
    32.0800        42
    32.1000        26
    32.1200        42
    32.1400        42
    32.1600        38
    32.1800        34
    32.2000        38
    32.2200        44
    32.2400        44
    32.2600        40
    32.2800        48
    32.3000        40
    32.3200        48
    32.3400        50
    32.3600        42
    32.3800        40
    32.4000        62
    32.4200        66
    32.4400        68
    32.4600        72
    32.4800        70
    32.5000        74
    32.5200        88
    32.5400        92
    32.5600        92
    32.5800       142
    32.6000       178
    32.6200       216
    32.6400       292
    32.6600       336
    32.6800       344
    32.7000       308
    32.7200       274
    32.7400       240
    32.7600       216
    32.7800       196
    32.8000       132
    32.8200       116
    32.8400        86
    32.8600        78
    32.8800        92
    32.9000       100
    32.9200        90
    32.9400        86
    32.9600       110
    32.9800       120
    33.0000       186
    33.0200       284
    33.0400       410
    33.0600       456
    33.0800       526
    33.1000       584
    33.1200       624
    33.1400       670
    33.1600       724
    33.1800       954
    33.2000       790
    33.2200       656
    33.2400       466
    33.2600       450
    33.2800       412
    33.3000       272
    33.3200       184
    33.3400       126
    33.3600        98
    33.3800        82
    33.4000        72
    33.4200        58
    33.4400        60
    33.4600        54
    33.4800        48
    33.5000        52
    33.5200        48
    33.5400        38
    33.5600        48
    33.5800        34
    33.6000        30
    33.6200        38
    33.6400        26
    33.6600        36
    33.6800        38
    33.7000        42
    33.7200        38
    33.7400        26
    33.7600        30
    33.7800        40
    33.8000        46
    33.8200        32
    33.8400        28
    33.8600        36
    33.8800        34
    33.9000        28
    33.9200        26
    33.9400        42
    33.9600        26
    33.9800        36
    34.0000        24
    34.0200        30
    34.0400        28
    34.0600        26
    34.0800        34
    34.1000        42
    34.1200        36
    34.1400        24
    34.1600        30
    34.1800        30
    34.2000        30
    34.2200        44
    34.2400        40
    34.2600        26
    34.2800        36
    34.3000        48
    34.3200        22
    34.3400        44
    34.3600        24
    34.3800        36
    34.4000        30
    34.4200        38
    34.4400        40
    34.4600        32
    34.4800        44
    34.5000        32
    34.5200        28
    34.5400        40
    34.5600        34
    34.5800        34
    34.6000        42
    34.6200        32
    34.6400        28
    34.6600        22
    34.6800        32
    34.7000        52
    34.7200        28
    34.7400        42
    34.7600        30
    34.7800        38
    34.8000        26
    34.8200        26
    34.8400        46
    34.8600        30
    34.8800        26
    34.9000        24
    34.9200        40
    34.9400        34
    34.9600        24
    34.9800        32
    35.0000        32
    35.0200        36
    35.0400        50
    35.0600        34
    35.0800        42
    35.1000        42
    35.1200        50
    35.1400        34
    35.1600        26
    35.1800        40
    35.2000        34
    35.2200        36
    35.2400        36
    35.2600        42
    35.2800        30
    35.3000        34
    35.3200        36
    35.3400        40
    35.3600        32
    35.3800        48
    35.4000        32
    35.4200        44
    35.4400        32
    35.4600        32
    35.4800        32
    35.5000        22
    35.5200        36
    35.5400        40
    35.5600        30
    35.5800        34
    35.6000        24
    35.6200        36
    35.6400        42
    35.6600        40
    35.6800        32
    35.7000        28
    35.7200        32
    35.7400        42
    35.7600        30
    35.7800        46
    35.8000        32
    35.8200        40
    35.8400        30
    35.8600        30
    35.8800        32
    35.9000        30
    35.9200        46
    35.9400        36
    35.9600        30
    35.9800        30
    36.0000        36
    36.0200        48
    36.0400        32
    36.0600        42
    36.0800        34
    36.1000        48
    36.1200        44
    36.1400        34
    36.1600        44
    36.1800        26
    36.2000        34
    36.2200        36
    36.2400        42
    36.2600        42
    36.2800        34
    36.3000        40
    36.3200        26
    36.3400        40
    36.3600        38
    36.3800        30
    36.4000        28
    36.4200        36
    36.4400        32
    36.4600        30
    36.4800        20
    36.5000        32
    36.5200        30
    36.5400        38
    36.5600        30
    36.5800        28
    36.6000        26
    36.6200        30
    36.6400        24
    36.6600        36
    36.6800        42
    36.7000        30
    36.7200        38
    36.7400        34
    36.7600        36
    36.7800        40
    36.8000        38
    36.8200        46
    36.8400        44
    36.8600        34
    36.8800        36
    36.9000        30
    36.9200        44
    36.9400        44
    36.9600        36
    36.9800        38
    37.0000        34
    37.0200        32
    37.0400        34
    37.0600        34
    37.0800        32
    37.1000        34
    37.1200        48
    37.1400        44
    37.1600        34
    37.1800        34
    37.2000        34
    37.2200        50
    37.2400        46
    37.2600        32
    37.2800        42
    37.3000        38
    37.3200        40
    37.3400        28
    37.3600        46
    37.3800        34
    37.4000        32
    37.4200        44
    37.4400        40
    37.4600        36
    37.4800        26
    37.5000        34
    37.5200        40
    37.5400        34
    37.5600        26
    37.5800        42
    37.6000        34
    37.6200        24
    37.6400        24
    37.6600        32
    37.6800        32
    37.7000        34
    37.7200        44
    37.7400        24
    37.7600        38
    37.7800        52
    37.8000        52
    37.8200        54
    37.8400        56
    37.8600        66
    37.8800        68
    37.9000        70
    37.9200        66
    37.9400        82
    37.9600        98
    37.9800        66
    38.0000        62
    38.0200        50
    38.0400        62
    38.0600        66
    38.0800        40
    38.1000        36
    38.1200        38
    38.1400        40
    38.1600        38
    38.1800        38
    38.2000        32
    38.2200        28
    38.2400        32
    38.2600        40
    38.2800        38
    38.3000        28
    38.3200        34
    38.3400        30
    38.3600        36
    38.3800        44
    38.4000        40
    38.4200        32
    38.4400        16
    38.4600        34
    38.4800        40
    38.5000        42
    38.5200        24
    38.5400        44
    38.5600        34
    38.5800        38
    38.6000        38
    38.6200        40
    38.6400        36
    38.6600        38
    38.6800        36
    38.7000        38
    38.7200        40
    38.7400        44
    38.7600        38
    38.7800        50
    38.8000        42
    38.8200        44
    38.8400        52
    38.8600        50
    38.8800        54
    38.9000        86
    38.9200        82
    38.9400       100
    38.9600       156
    38.9800       200
    39.0000       218
    39.0200       264
    39.0400       356
    39.0600       330
    39.0800       336
    39.1000       250
    39.1200       212
    39.1400       200
    39.1600       184
    39.1800       162
    39.2000       140
    39.2200       102
    39.2400        76
    39.2600        72
    39.2800        60
    39.3000        46
    39.3200        46
    39.3400        50
    39.3600        44
    39.3800        46
    39.4000        56
    39.4200        58
    39.4400        42
    39.4600        44
    39.4800        56
    39.5000        46
    39.5200        42
    39.5400        48
    39.5600        56
    39.5800        42
    39.6000        38
    39.6200        38
    39.6400        44
    39.6600        44
    39.6800        38
    39.7000        40
    39.7200        38
    39.7400        36
    39.7600        40
    39.7800        36
    39.8000        28
    39.8200        28
    39.8400        40
    39.8600        42
    39.8800        36
    39.9000        38
    39.9200        38
    39.9400        30
    39.9600        38
    39.9800        26
    40.0000        38
    40.0200        38
    40.0400        42
    40.0600        30
    40.0800        26
    40.1000        30
    40.1200        32
    40.1400        32
    40.1600        40
    40.1800        42
    40.2000        32
    40.2200        26
    40.2400        38
    40.2600        40
    40.2800        32
    40.3000        42
    40.3200        40
    40.3400        30
    40.3600        40
    40.3800        42
    40.4000        36
    40.4200        30
    40.4400        44
    40.4600        28
    40.4800        32
    40.5000        26
    40.5200        36
    40.5400        32
    40.5600        34
    40.5800        30
    40.6000        44
    40.6200        34
    40.6400        30
    40.6600        44
    40.6800        34
    40.7000        44
    40.7200        34
    40.7400        46
    40.7600        40
    40.7800        40
    40.8000        52
    40.8200        60
    40.8400        84
    40.8600       104
    40.8800       128
    40.9000       138
    40.9200       152
    40.9400       162
    40.9600       142
    40.9800       112
    41.0000       114
    41.0200        90
    41.0400       108
    41.0600        64
    41.0800        66
    41.1000        58
    41.1200        44
    41.1400        46
    41.1600        38
    41.1800        42
    41.2000        26
    41.2200        34
    41.2400        36
    41.2600        28
    41.2800        28
    41.3000        30
    41.3200        32
    41.3400        28
    41.3600        38
    41.3800        24
    41.4000        38
    41.4200        32
    41.4400        42
    41.4600        36
    41.4800        42
    41.5000        36
    41.5200        34
    41.5400        44
    41.5600        38
    41.5800        24
    41.6000        34
    41.6200        54
    41.6400        44
    41.6600        40
    41.6800        48
    41.7000        38
    41.7200        36
    41.7400        54
    41.7600        58
    41.7800        56
    41.8000        66
    41.8200        74
    41.8400        96
    41.8600       126
    41.8800       194
    41.9000       256
    41.9200       220
    41.9400       162
    41.9600       148
    41.9800       146
    42.0000       228
    42.0200       248
    42.0400       274
    42.0600       274
    42.0800       232
    42.1000       224
    42.1200       234
    42.1400       182
    42.1600       182
    42.1800       166
    42.2000       148
    42.2200       138
    42.2400       108
    42.2600        88
    42.2800        92
    42.3000        90
    42.3200        68
    42.3400        64
    42.3600        54
    42.3800        76
    42.4000        50
    42.4200        62
    42.4400        34
    42.4600        38
    42.4800        38
    42.5000        42
    42.5200        36
    42.5400        46
    42.5600        46
    42.5800        40
    42.6000        40
    42.6200        34
    42.6400        42
    42.6600        26
    42.6800        36
    42.7000        36
    42.7200        36
    42.7400        36
    42.7600        30
    42.7800        26
    42.8000        26
    42.8200        44
    42.8400        36
    42.8600        46
    42.8800        52
    42.9000        38
    42.9200        58
    42.9400        38
    42.9600        32
    42.9800        28
    43.0000        42
    43.0200        32
    43.0400        40
    43.0600        38
    43.0800        24
    43.1000        26
    43.1200        38
    43.1400        34
    43.1600        36
    43.1800        34
    43.2000        38
    43.2200        36
    43.2400        34
    43.2600        28
    43.2800        36
    43.3000        28
    43.3200        32
    43.3400        40
    43.3600        34
    43.3800        38
    43.4000        26
    43.4200        50
    43.4400        32
    43.4600        40
    43.4800        38
    43.5000        38
    43.5200        42
    43.5400        58
    43.5600        78
    43.5800        62
    43.6000        72
    43.6200        70
    43.6400        66
    43.6600        58
    43.6800        60
    43.7000        60
    43.7200        44
    43.7400        40
    43.7600        40
    43.7800        34
    43.8000        28
    43.8200        24
    43.8400        32
    43.8600        32
    43.8800        40
    43.9000        32
    43.9200        28
    43.9400        30
    43.9600        30
    43.9800        42
    44.0000        48
    44.0200        34
    44.0400        36
    44.0600        34
    44.0800        38
    44.1000        22
    44.1200        46
    44.1400        42
    44.1600        44
    44.1800        32
    44.2000        34
    44.2200        26
    44.2400        36
    44.2600        32
    44.2800        30
    44.3000        30
    44.3200        42
    44.3400        44
    44.3600        26
    44.3800        34
    44.4000        32
    44.4200        36
    44.4400        46
    44.4600        32
    44.4800        46
    44.5000        38
    44.5200        38
    44.5400        48
    44.5600        32
    44.5800        32
    44.6000        36
    44.6200        44
    44.6400        38
    44.6600        48
    44.6800        56
    44.7000        68
    44.7200        72
    44.7400        94
    44.7600       120
    44.7800       138
    44.8000       154
    44.8200       210
    44.8400       204
    44.8600       204
    44.8800       162
    44.9000       128
    44.9200       134
    44.9400       144
    44.9600       156
    44.9800       184
    45.0000       192
    45.0200       158
    45.0400       150
    45.0600       134
    45.0800       110
    45.1000       116
    45.1200        98
    45.1400        98
    45.1600        84
    45.1800        72
    45.2000        80
    45.2200        52
    45.2400        58
    45.2600        54
    45.2800        44
    45.3000        24
    45.3200        38
    45.3400        26
    45.3600        24
    45.3800        40
    45.4000        30
    45.4200        30
    45.4400        34
    45.4600        42
    45.4800        30
    45.5000        28
    45.5200        36
    45.5400        40
    45.5600        42
    45.5800        26
    45.6000        38
    45.6200        26
    45.6400        46
    45.6600        38
    45.6800        38
    45.7000        36
    45.7200        34
    45.7400        52
    45.7600        34
    45.7800        30
    45.8000        38
    45.8200        40
    45.8400        30
    45.8600        24
    45.8800        26
    45.9000        42
    45.9200        22
    45.9400        36
    45.9600        46
    45.9800        34
    46.0000        46
    46.0200        38
    46.0400        24
    46.0600        38
    46.0800        26
    46.1000        42
    46.1200        34
    46.1400        34
    46.1600        24
    46.1800        34
    46.2000        40
    46.2200        30
    46.2400        42
    46.2600        24
    46.2800        36
    46.3000        36
    46.3200        32
    46.3400        38
    46.3600        36
    46.3800        38
    46.4000        34
    46.4200        34
    46.4400        36
    46.4600        38
    46.4800        34
    46.5000        34
    46.5200        32
    46.5400        34
    46.5600        36
    46.5800        44
    46.6000        40
    46.6200        42
    46.6400        38
    46.6600        32
    46.6800        44
    46.7000        36
    46.7200        32
    46.7400        46
    46.7600        30
    46.7800        38
    46.8000        38
    46.8200        42
    46.8400        40
    46.8600        38
    46.8800        44
    46.9000        36
    46.9200        36
    46.9400        38
    46.9600        44
    46.9800        52
    47.0000        58
    47.0200        46
    47.0400        70
    47.0600        66
    47.0800        60
    47.1000        64
    47.1200        90
    47.1400        94
    47.1600       130
    47.1800       204
    47.2000       368
    47.2200       448
    47.2400       414
    47.2600       306
    47.2800       298
    47.3000       306
    47.3200       392
    47.3400       496
    47.3600       542
    47.3800       596
    47.4000       538
    47.4200       476
    47.4400       310
    47.4600       336
    47.4800       482
    47.5000       718
    47.5200       960
    47.5400       914
    47.5600       724
    47.5800       480
    47.6000       320
    47.6200       360
    47.6400       452
    47.6600       474
    47.6800       344
    47.7000       266
    47.7200       206
    47.7400       166
    47.7600       138
    47.7800       162
    47.8000       182
    47.8200       226
    47.8400       202
    47.8600       190
    47.8800       164
    47.9000       160
    47.9200       144
    47.9400       168
    47.9600       142
    47.9800       100
    48.0000       116
    48.0200        68
    48.0400        62
    48.0600        64
    48.0800        54
    48.1000        46
    48.1200        38
    48.1400        46
    48.1600        48
    48.1800        48
    48.2000        38
    48.2200        40
    48.2400        38
    48.2600        40
    48.2800        38
    48.3000        42
    48.3200        48
    48.3400        36
    48.3600        34
    48.3800        40
    48.4000        30
    48.4200        40
    48.4400        36
    48.4600        34
    48.4800        42
    48.5000        32
    48.5200        36
    48.5400        50
    48.5600        26
    48.5800        42
    48.6000        38
    48.6200        32
    48.6400        38
    48.6600        30
    48.6800        44
    48.7000        32
    48.7200        28
    48.7400        42
    48.7600        34
    48.7800        36
    48.8000        42
    48.8200        32
    48.8400        32
    48.8600        34
    48.8800        30
    48.9000        30
    48.9200        34
    48.9400        34
    48.9600        32
    48.9800        26
    49.0000        34
    49.0200        42
    49.0400        40
    49.0600        48
    49.0800        36
    49.1000        26
    49.1200        30
    49.1400        32
    49.1600        30
    49.1800        44
    49.2000        42
    49.2200        34
    49.2400        24
    49.2600        36
    49.2800        36
    49.3000        34
    49.3200        24
    49.3400        24
    49.3600        42
    49.3800        32
    49.4000        38
    49.4200        38
    49.4400        24
    49.4600        32
    49.4800        40
    49.5000        34
    49.5200        28
    49.5400        46
    49.5600        46
    49.5800        32
    49.6000        38
    49.6200        52
    49.6400        46
    49.6600        52
    49.6800        70
    49.7000       106
    49.7200       130
    49.7400       144
    49.7600       108
    49.7800        66
    49.8000        64
    49.8200        64
    49.8400        72
    49.8600        82
    49.8800        78
    49.9000        58
    49.9200        60
    49.9400        54
    49.9600        66
    49.9800        50
    50.0000        86
    50.0200        96
    50.0400       142
    50.0600       210
    50.0800       248
    50.1000       196
    50.1200       120
    50.1400       110
    50.1600        96
    50.1800       110
    50.2000       148
    50.2200       130
    50.2400        92
    50.2600        82
    50.2800        44
    50.3000        52
    50.3200        54
    50.3400        36
    50.3600        34
    50.3800        28
    50.4000        36
    50.4200        30
    50.4400        30
    50.4600        32
    50.4800        32
    50.5000        34
    50.5200        22
    50.5400        28
    50.5600        28
    50.5800        30
    50.6000        30
    50.6200        30
    50.6400        32
    50.6600        36
    50.6800        50
    50.7000        40
    50.7200        38
    50.7400        46
    50.7600        34
    50.7800        30
    50.8000        44
    50.8200        26
    50.8400        22
    50.8600        20
    50.8800        30
    50.9000        38
    50.9200        36
    50.9400        32
    50.9600        34
    50.9800        40
    51.0000        52
    51.0200        34
    51.0400        30
    51.0600        32
    51.0800        30
    51.1000        38
    51.1200        26
    51.1400        48
    51.1600        28
    51.1800        28
    51.2000        34
    51.2200        32
    51.2400        32
    51.2600        42
    51.2800        36
    51.3000        36
    51.3200        40
    51.3400        36
    51.3600        42
    51.3800        20
    51.4000        44
    51.4200        36
    51.4400        42
    51.4600        30
    51.4800        46
    51.5000        40
    51.5200        32
    51.5400        30
    51.5600        32
    51.5800        38
    51.6000        28
    51.6200        34
    51.6400        38
    51.6600        34
    51.6800        24
    51.7000        24
    51.7200        30
    51.7400        24
    51.7600        32
    51.7800        36
    51.8000        30
    51.8200        32
    51.8400        24
    51.8600        36
    51.8800        34
    51.9000        32
    51.9200        44
    51.9400        40
    51.9600        36
    51.9800        36
    52.0000        38
    52.0200        52
    52.0400        56
    52.0600        60
    52.0800        76
    52.1000        80
    52.1200        74
    52.1400        88
    52.1600       100
    52.1800        80
    52.2000        94
    52.2200       116
    52.2400        92
    52.2600       102
    52.2800        96
    52.3000        74
    52.3200        66
    52.3400        96
    52.3600        48
    52.3800        48
    52.4000        44
    52.4200        56
    52.4400        46
    52.4600        48
    52.4800        34
    52.5000        46
    52.5200        36
    52.5400        32
    52.5600        32
    52.5800        36
    52.6000        42
    52.6200        44
    52.6400        40
    52.6600        40
    52.6800        38
    52.7000        24
    52.7200        30
    52.7400        30
    52.7600        44
    52.7800        36
    52.8000        36
    52.8200        38
    52.8400        38
    52.8600        50
    52.8800        38
    52.9000        38
    52.9200        38
    52.9400        28
    52.9600        28
    52.9800        38
    53.0000        38
    53.0200        30
    53.0400        36
    53.0600        28
    53.0800        30
    53.1000        28
    53.1200        24
    53.1400        28
    53.1600        38
    53.1800        30
    53.2000        24
    53.2200        32
    53.2400        40
    53.2600        42
    53.2800        36
    53.3000        26
    53.3200        32
    53.3400        20
    53.3600        18
    53.3800        48
    53.4000        36
    53.4200        46
    53.4400        48
    53.4600        54
    53.4800        56
    53.5000        64
    53.5200        84
    53.5400        98
    53.5600       122
    53.5800       146
    53.6000       134
    53.6200       138
    53.6400        94
    53.6600        84
    53.6800        92
    53.7000        88
    53.7200        88
    53.7400       118
    53.7600       106
    53.7800        82
    53.8000        72
    53.8200        44
    53.8400        42
    53.8600        34
    53.8800        40
    53.9000        22
    53.9200        36
    53.9400        44
    53.9600        32
    53.9800        30
    54.0000        40
    54.0200        38
    54.0400        34
    54.0600        28
    54.0800        32
    54.1000        42
    54.1200        34
    54.1400        28
    54.1600        32
    54.1800        28
    54.2000        28
    54.2200        36
    54.2400        30
    54.2600        30
    54.2800        26
    54.3000        28
    54.3200        26
    54.3400        28
    54.3600        32
    54.3800        30
    54.4000        38
    54.4200        38
    54.4400        22
    54.4600        38
    54.4800        46
    54.5000        38
    54.5200        54
    54.5400        54
    54.5600        64
    54.5800        82
    54.6000        92
    54.6200        78
    54.6400        76
    54.6600        60
    54.6800        86
    54.7000        74
    54.7200        78
    54.7400        76
    54.7600        82
    54.7800        68
    54.8000        56
    54.8200        52
    54.8400        36
    54.8600        50
    54.8800        38
    54.9000        54
    54.9200        30
    54.9400        38
    54.9600        34
    54.9800        30
    55.0000        34
    55.0200        34
    55.0400        28
    55.0600        36
    55.0800        28
    55.1000        36
    55.1200        30
    55.1400        28
    55.1600        32
    55.1800        28
    55.2000        28
    55.2200        36
    55.2400        28
    55.2600        28
    55.2800        30
    55.3000        26
    55.3200        16
    55.3400        26
    55.3600        24
    55.3800        30
    55.4000        26
    55.4200        38
    55.4400        28
    55.4600        28
    55.4800        28
    55.5000        32
    55.5200        20
    55.5400        32
    55.5600        30
    55.5800        24
    55.6000        26
    55.6200        26
    55.6400        44
    55.6600        30
    55.6800        24
    55.7000        34
    55.7200        28
    55.7400        28
    55.7600        20
    55.7800        40
    55.8000        28
    55.8200        34
    55.8400        30
    55.8600        36
    55.8800        48
    55.9000        28
    55.9200        34
    55.9400        26
    55.9600        28
    55.9800        40
    56.0000        30
    56.0200        30
    56.0400        30
    56.0600        40
    56.0800        42
    56.1000        38
    56.1200        32
    56.1400        40
    56.1600        36
    56.1800        26
    56.2000        34
    56.2200        30
    56.2400        32
    56.2600        22
    56.2800        32
    56.3000        32
    56.3200        40
    56.3400        30
    56.3600        38
    56.3800        28
    56.4000        24
    56.4200        16
    56.4400        30
    56.4600        34
    56.4800        26
    56.5000        36
    56.5200        34
    56.5400        42
    56.5600        36
    56.5800        26
    56.6000        36
    56.6200        52
    56.6400        60
    56.6600        76
    56.6800       102
    56.7000       130
    56.7200       166
    56.7400       172
    56.7600       158
    56.7800       118
    56.8000        86
    56.8200        74
    56.8400        90
    56.8600        90
    56.8800        80
    56.9000       108
    56.9200        98
    56.9400        66
    56.9600        58
    56.9800        40
    57.0000        44
    57.0200        30
    57.0400        28
    57.0600        40
    57.0800        36
    57.1000        42
    57.1200        28
    57.1400        38
    57.1600        66
    57.1800        68
    57.2000        82
    57.2200        84
    57.2400       132
    57.2600       224
    57.2800       244
    57.3000       158
    57.3200        96
    57.3400        94
    57.3600        62
    57.3800        70
    57.4000        96
    57.4200       142
    57.4400       108
    57.4600        96
    57.4800        42
    57.5000        28
    57.5200        36
    57.5400        28
    57.5600        36
    57.5800        22
    57.6000        32
    57.6200        28
    57.6400        26
    57.6600        30
    57.6800        34
    57.7000        24
    57.7200        22
    57.7400        26
    57.7600        32
    57.7800        28
    57.8000        36
    57.8200        38
    57.8400        32
    57.8600        24
    57.8800        34
    57.9000        22
    57.9200        30
    57.9400        34
    57.9600        24
    57.9800        36
    58.0000        42
    58.0200        38
    58.0400        32
    58.0600        34
    58.0800        34
    58.1000        44
    58.1200        44
    58.1400        34
    58.1600        42
    58.1800        36
    58.2000        46
    58.2200        36
    58.2400        36
    58.2600        32
    58.2800        40
    58.3000        32
    58.3200        48
    58.3400        36
    58.3600        42
    58.3800        36
    58.4000        40
    58.4200        32
    58.4400        26
    58.4600        30
    58.4800        22
    58.5000        48
    58.5200        26
    58.5400        40
    58.5600        48
    58.5800        36
    58.6000        24
    58.6200        32
    58.6400        24
    58.6600        36
    58.6800        36
    58.7000        42
    58.7200        34
    58.7400        34
    58.7600        42
    58.7800        24
    58.8000        32
    58.8200        42
    58.8400        46
    58.8600        36
    58.8800        36
    58.9000        44
    58.9200        46
    58.9400        46
    58.9600        74
    58.9800        84
    59.0000       152
    59.0200       134
    59.0400       136
    59.0600       160
    59.0800       130
    59.1000       108
    59.1200       118
    59.1400       120
    59.1600       114
    59.1800       106
    59.2000       124
    59.2200       188
    59.2400       194
    59.2600       200
    59.2800       178
    59.3000       144
    59.3200        76
    59.3400        68
    59.3600        72
    59.3800        78
    59.4000       104
    59.4200       116
    59.4400       116
    59.4600        90
    59.4800        62
    59.5000        40
    59.5200        26
    59.5400        36
    59.5600        38
    59.5800        42
    59.6000        38
    59.6200        46
    59.6400        40
    59.6600        26
    59.6800        30
    59.7000        34
    59.7200        32
    59.7400        24
    59.7600        36
    59.7800        26
    59.8000        36
    59.8200        30
    59.8400        34
    59.8600        30
    59.8800        32
    59.9000        26
    59.9200        26
    59.9400        26
    59.9600        32
    59.9800        32
    60.0000        28
    60.0200        32
    60.0400        30
    60.0600        28
    60.0800        38
    60.1000        28
    60.1200        24
    60.1400        36
    60.1600        30
    60.1800        30
    60.2000        40
    60.2200        28
    60.2400        28
    60.2600        44
    60.2800        48
    60.3000        50
    60.3200        60
    60.3400        54
    60.3600        44
    60.3800        46
    60.4000        54
    60.4200        36
    60.4400        40
    60.4600        50
    60.4800        56
    60.5000        38
    60.5200        48
    60.5400        44
    60.5600        40
    60.5800        28
    60.6000        32
    60.6200        40
    60.6400        36
    60.6600        18
    60.6800        24
    60.7000        26
    60.7200        32
    60.7400        32
    60.7600        32
    60.7800        30
    60.8000        32
    60.8200        28
    60.8400        24
    60.8600        36
    60.8800        38
    60.9000        50
    60.9200        34
    60.9400        42
    60.9600        24
    60.9800        42
    61.0000        28
    61.0200        48
    61.0400        50
    61.0600        48
    61.0800        58
    61.1000        66
    61.1200        70
    61.1400        86
    61.1600        80
    61.1800       114
    61.2000       122
    61.2200       128
    61.2400       154
    61.2600       140
    61.2800       158
    61.3000       136
    61.3200       114
    61.3400        84
    61.3600        64
    61.3800        68
    61.4000        84
    61.4200        68
    61.4400        56
    61.4600        86
    61.4800        66
    61.5000        42
    61.5200        50
    61.5400        48
    61.5600        46
    61.5800        30
    61.6000        32
    61.6200        40
    61.6400        36
    61.6600        36
    61.6800        28
    61.7000        26
    61.7200        24
    61.7400        24
    61.7600        28
    61.7800        12
    61.8000        30
    61.8200        32
    61.8400        22
    61.8600        28
    61.8800        30
    61.9000        22
    61.9200        20
    61.9400        28
    61.9600        30
    61.9800        38
    62.0000        24
    62.0200        38
    62.0400        32
    62.0600        34
    62.0800        30
    62.1000        32
    62.1200        30
    62.1400        42
    62.1600        34
    62.1800        32
    62.2000        36
    62.2200        28
    62.2400        36
    62.2600        22
    62.2800        34
    62.3000        36
    62.3200        28
    62.3400        42
    62.3600        30
    62.3800        30
    62.4000        26
    62.4200        38
    62.4400        30
    62.4600        28
    62.4800        36
    62.5000        42
    62.5200        48
    62.5400        42
    62.5600        46
    62.5800        48
    62.6000        54
    62.6200        54
    62.6400        72
    62.6600        60
    62.6800        50
    62.7000        42
    62.7200        32
    62.7400        36
    62.7600        38
    62.7800        52
    62.8000        52
    62.8200        46
    62.8400        54
    62.8600        50
    62.8800        42
    62.9000        36
    62.9200        38
    62.9400        28
    62.9600        28
    62.9800        40
    63.0000        28
    63.0200        36
    63.0400        46
    63.0600        54
    63.0800        56
    63.1000        62
    63.1200        46
    63.1400        42
    63.1600        64
    63.1800        68
    63.2000        78
    63.2200        62
    63.2400        72
    63.2600        56
    63.2800        58
    63.3000        56
    63.3200        60
    63.3400        84
    63.3600        86
    63.3800        62
    63.4000        88
    63.4200       108
    63.4400       112
    63.4600       188
    63.4800       194
    63.5000       226
    63.5200       238
    63.5400       226
    63.5600       184
    63.5800       152
    63.6000       198
    63.6200       194
    63.6400       166
    63.6600       124
    63.6800       110
    63.7000       138
    63.7200       134
    63.7400       104
    63.7600        94
    63.7800        90
    63.8000        92
    63.8200        72
    63.8400        54
    63.8600        40
    63.8800        36
    63.9000        42
    63.9200        40
    63.9400        26
    63.9600        36
    63.9800        24
    64.0000        40
    64.0200        34
    64.0400        32
    64.0600        28
    64.0800        28
    64.1000        32
    64.1200        38
    64.1400        20
    64.1600        44
    64.1800        34
    64.2000        38
    64.2200        40
    64.2400        34
    64.2600        34
    64.2800        32
    64.3000        36
    64.3200        30
    64.3400        30
    64.3600        36
    64.3800        32
    64.4000        22
    64.4200        46
    64.4400        34
    64.4600        26
    64.4800        32
    64.5000        38
    64.5200        34
    64.5400        20
    64.5600        38
    64.5800        28
    64.6000        30
    64.6200        34
    64.6400        38
    64.6600        30
    64.6800        30
    64.7000        16
    64.7200        30
    64.7400        38
    64.7600        26
    64.7800        36
    64.8000        22
    64.8200        28
    64.8400        32
    64.8600        26
    64.8800        30
    64.9000        36
    64.9200        26
    64.9400        38
    64.9600        28
    64.9800        32
    65.0000        26
