/////////////////////////////////////////////////////////////////////////////////
/// Profile Data Ascii Dump (XRD)                                             ///
/////////////////////////////////////////////////////////////////////////////////

  Group     : Swayze
  Data      : GDS39B
  File Name : GDS39B.RAW

# Profile Datafile
          comment             = Scapolite grp. 
          date & time         = 08-03-25 07:55:02 

# Measurement Condition
    X-ray tube
          target              = Cu 
          voltage             = 40.0 (kV)
          current             = 30.0 (mA)
    Slits
          divergence slit     = 2.00000 (deg) 
          scatter slit        = 2.00000 (deg) 
          receiving slit      = 0.15000 (mm)  
    Scanning
          drive axis          = Theta-2Theta 
          scan range          =    4.000 -   65.000 
          scan mode           = Continuous Scan 
          scan speed          =   2.0000 (deg/min) 
          sampling pitch      =   0.0200 (deg) 
          preset time         =   0.60 (sec) 

# Data      [ Total No. = 3051 ]
  <2Theta>   <   I   >
     4.0000       170
     4.0200       204
     4.0400       194
     4.0600       176
     4.0800       186
     4.1000       174
     4.1200       186
     4.1400       178
     4.1600       166
     4.1800       168
     4.2000       186
     4.2200       162
     4.2400       180
     4.2600       174
     4.2800       158
     4.3000       164
     4.3200       170
     4.3400       168
     4.3600       194
     4.3800       180
     4.4000       194
     4.4200       174
     4.4400       182
     4.4600       164
     4.4800       144
     4.5000       194
     4.5200       170
     4.5400       164
     4.5600       156
     4.5800       166
     4.6000       164
     4.6200       148
     4.6400       190
     4.6600       158
     4.6800       174
     4.7000       156
     4.7200       160
     4.7400       162
     4.7600       166
     4.7800       172
     4.8000       166
     4.8200       146
     4.8400       162
     4.8600       154
     4.8800       146
     4.9000       150
     4.9200       156
     4.9400       144
     4.9600       138
     4.9800       136
     5.0000       154
     5.0200       174
     5.0400       150
     5.0600       162
     5.0800       164
     5.1000       160
     5.1200       148
     5.1400       146
     5.1600       154
     5.1800       148
     5.2000       180
     5.2200       144
     5.2400       180
     5.2600       184
     5.2800       170
     5.3000       140
     5.3200       144
     5.3400       146
     5.3600       196
     5.3800       140
     5.4000       146
     5.4200       156
     5.4400       166
     5.4600       136
     5.4800       174
     5.5000       150
     5.5200       156
     5.5400       196
     5.5600       126
     5.5800       154
     5.6000       164
     5.6200       150
     5.6400       154
     5.6600       148
     5.6800       164
     5.7000       156
     5.7200       140
     5.7400       154
     5.7600       184
     5.7800       158
     5.8000       156
     5.8200       148
     5.8400       154
     5.8600       162
     5.8800       174
     5.9000       154
     5.9200       170
     5.9400       156
     5.9600       144
     5.9800       160
     6.0000       146
     6.0200       160
     6.0400       146
     6.0600       170
     6.0800       160
     6.1000       142
     6.1200       152
     6.1400       136
     6.1600       152
     6.1800       138
     6.2000       140
     6.2200       124
     6.2400       138
     6.2600       150
     6.2800       148
     6.3000       160
     6.3200       126
     6.3400       144
     6.3600       140
     6.3800       152
     6.4000       146
     6.4200       128
     6.4400       146
     6.4600       134
     6.4800       166
     6.5000       128
     6.5200       118
     6.5400       152
     6.5600       134
     6.5800       142
     6.6000       136
     6.6200       120
     6.6400       128
     6.6600       126
     6.6800       122
     6.7000       142
     6.7200       110
     6.7400       132
     6.7600       134
     6.7800       104
     6.8000       132
     6.8200       104
     6.8400       122
     6.8600       130
     6.8800       132
     6.9000       104
     6.9200       124
     6.9400       124
     6.9600       112
     6.9800       120
     7.0000       112
     7.0200       132
     7.0400       124
     7.0600       116
     7.0800       114
     7.1000       152
     7.1200       118
     7.1400       116
     7.1600       124
     7.1800       134
     7.2000       118
     7.2200       110
     7.2400       110
     7.2600       132
     7.2800       130
     7.3000       102
     7.3200       108
     7.3400       106
     7.3600        98
     7.3800       132
     7.4000       114
     7.4200        98
     7.4400       126
     7.4600       114
     7.4800       128
     7.5000       126
     7.5200        98
     7.5400       110
     7.5600       106
     7.5800       108
     7.6000       102
     7.6200       116
     7.6400       122
     7.6600       122
     7.6800       120
     7.7000       100
     7.7200       116
     7.7400       120
     7.7600       128
     7.7800       116
     7.8000       116
     7.8200       108
     7.8400       110
     7.8600       122
     7.8800       132
     7.9000       104
     7.9200       120
     7.9400        94
     7.9600       116
     7.9800       118
     8.0000       116
     8.0200       126
     8.0400       110
     8.0600        96
     8.0800       108
     8.1000       114
     8.1200       100
     8.1400        96
     8.1600       110
     8.1800       116
     8.2000       114
     8.2200       104
     8.2400       140
     8.2600       104
     8.2800       120
     8.3000       122
     8.3200       122
     8.3400       114
     8.3600       112
     8.3800       114
     8.4000       104
     8.4200       130
     8.4400       110
     8.4600       128
     8.4800       112
     8.5000       112
     8.5200        96
     8.5400        88
     8.5600       120
     8.5800       128
     8.6000       100
     8.6200       106
     8.6400       144
     8.6600       142
     8.6800        94
     8.7000       112
     8.7200       108
     8.7400       114
     8.7600       120
     8.7800       114
     8.8000       124
     8.8200       114
     8.8400       100
     8.8600       108
     8.8800       130
     8.9000       126
     8.9200       118
     8.9400       114
     8.9600       126
     8.9800       126
     9.0000       126
     9.0200       108
     9.0400       100
     9.0600       108
     9.0800       114
     9.1000       126
     9.1200       122
     9.1400       114
     9.1600       102
     9.1800       118
     9.2000       132
     9.2200       106
     9.2400       132
     9.2600       112
     9.2800       106
     9.3000       112
     9.3200       100
     9.3400       130
     9.3600       128
     9.3800        84
     9.4000       104
     9.4200       138
     9.4400       128
     9.4600       110
     9.4800       126
     9.5000        96
     9.5200       118
     9.5400       100
     9.5600       126
     9.5800       124
     9.6000       106
     9.6200        98
     9.6400       112
     9.6600       106
     9.6800       124
     9.7000       112
     9.7200        98
     9.7400       116
     9.7600       134
     9.7800       136
     9.8000        92
     9.8200       128
     9.8400       114
     9.8600       132
     9.8800       126
     9.9000       144
     9.9200       120
     9.9400       130
     9.9600       114
     9.9800       114
    10.0000       102
    10.0200       114
    10.0400       124
    10.0600       126
    10.0800       106
    10.1000       114
    10.1200       122
    10.1400       124
    10.1600       112
    10.1800       138
    10.2000       112
    10.2200       138
    10.2400       124
    10.2600       134
    10.2800       126
    10.3000       134
    10.3200       112
    10.3400        98
    10.3600        98
    10.3800       108
    10.4000       102
    10.4200       100
    10.4400       112
    10.4600       100
    10.4800        90
    10.5000        98
    10.5200        80
    10.5400       120
    10.5600        94
    10.5800        88
    10.6000       108
    10.6200        96
    10.6400       118
    10.6600       100
    10.6800       106
    10.7000       104
    10.7200        94
    10.7400        90
    10.7600        90
    10.7800        84
    10.8000        96
    10.8200       104
    10.8400       110
    10.8600       100
    10.8800       102
    10.9000        92
    10.9200        80
    10.9400        88
    10.9600        92
    10.9800        80
    11.0000       106
    11.0200        96
    11.0400        86
    11.0600       102
    11.0800       116
    11.1000       104
    11.1200        94
    11.1400        96
    11.1600        92
    11.1800        82
    11.2000        84
    11.2200        94
    11.2400        72
    11.2600       102
    11.2800        90
    11.3000        68
    11.3200        98
    11.3400        94
    11.3600        78
    11.3800        94
    11.4000        86
    11.4200        82
    11.4400        98
    11.4600        92
    11.4800        84
    11.5000        78
    11.5200        84
    11.5400        80
    11.5600        76
    11.5800        74
    11.6000        74
    11.6200        86
    11.6400        94
    11.6600        84
    11.6800        86
    11.7000        96
    11.7200        72
    11.7400       108
    11.7600        74
    11.7800        92
    11.8000        60
    11.8200        76
    11.8400        88
    11.8600       102
    11.8800        86
    11.9000        62
    11.9200        90
    11.9400        72
    11.9600        74
    11.9800        76
    12.0000        90
    12.0200        86
    12.0400        90
    12.0600        78
    12.0800        96
    12.1000        84
    12.1200        88
    12.1400        80
    12.1600        76
    12.1800        72
    12.2000        84
    12.2200        72
    12.2400        74
    12.2600        72
    12.2800        76
    12.3000        92
    12.3200        92
    12.3400        74
    12.3600        76
    12.3800        98
    12.4000        86
    12.4200        60
    12.4400        82
    12.4600        74
    12.4800        92
    12.5000        80
    12.5200        74
    12.5400        86
    12.5600        80
    12.5800        84
    12.6000        78
    12.6200        68
    12.6400        78
    12.6600        80
    12.6800        84
    12.7000        70
    12.7200        78
    12.7400        60
    12.7600        76
    12.7800        70
    12.8000        74
    12.8200        82
    12.8400        78
    12.8600        64
    12.8800        64
    12.9000        66
    12.9200        78
    12.9400        72
    12.9600        92
    12.9800        60
    13.0000        76
    13.0200        74
    13.0400        76
    13.0600        68
    13.0800        68
    13.1000        78
    13.1200        66
    13.1400        86
    13.1600        76
    13.1800        76
    13.2000        92
    13.2200        86
    13.2400        76
    13.2600        94
    13.2800        82
    13.3000        80
    13.3200        84
    13.3400        68
    13.3600        74
    13.3800        88
    13.4000        96
    13.4200        70
    13.4400        86
    13.4600        94
    13.4800       104
    13.5000       124
    13.5200       102
    13.5400        98
    13.5600        88
    13.5800        80
    13.6000       100
    13.6200       126
    13.6400       150
    13.6600       190
    13.6800       176
    13.7000       174
    13.7200       154
    13.7400       122
    13.7600        84
    13.7800        78
    13.8000        70
    13.8200        86
    13.8400        78
    13.8600        70
    13.8800        80
    13.9000        58
    13.9200        78
    13.9400        68
    13.9600        64
    13.9800        66
    14.0000        80
    14.0200        68
    14.0400        66
    14.0600        80
    14.0800        84
    14.1000        70
    14.1200        84
    14.1400        62
    14.1600        74
    14.1800        68
    14.2000        76
    14.2200        76
    14.2400        68
    14.2600        74
    14.2800        82
    14.3000        56
    14.3200        50
    14.3400        96
    14.3600        70
    14.3800        76
    14.4000        88
    14.4200       130
    14.4400       152
    14.4600       162
    14.4800       134
    14.5000       136
    14.5200       166
    14.5400       238
    14.5600       212
    14.5800       184
    14.6000       158
    14.6200       106
    14.6400        82
    14.6600        76
    14.6800        88
    14.7000        72
    14.7200        80
    14.7400        64
    14.7600        70
    14.7800        52
    14.8000        56
    14.8200        64
    14.8400        80
    14.8600        64
    14.8800        58
    14.9000        62
    14.9200        58
    14.9400        58
    14.9600        74
    14.9800        60
    15.0000        62
    15.0200        68
    15.0400        60
    15.0600        50
    15.0800        68
    15.1000        70
    15.1200        66
    15.1400        74
    15.1600        78
    15.1800        68
    15.2000        60
    15.2200        60
    15.2400        68
    15.2600        62
    15.2800        58
    15.3000        78
    15.3200        66
    15.3400        58
    15.3600        50
    15.3800        62
    15.4000        56
    15.4200        66
    15.4400        68
    15.4600        62
    15.4800        66
    15.5000        58
    15.5200        54
    15.5400        52
    15.5600        54
    15.5800        50
    15.6000        72
    15.6200        68
    15.6400        48
    15.6600        60
    15.6800        76
    15.7000        62
    15.7200        70
    15.7400        54
    15.7600        44
    15.7800        52
    15.8000        78
    15.8200        66
    15.8400        56
    15.8600        60
    15.8800        50
    15.9000        60
    15.9200        56
    15.9400        58
    15.9600        56
    15.9800        48
    16.0000        52
    16.0200        58
    16.0400        58
    16.0600        42
    16.0800        52
    16.1000        68
    16.1200        62
    16.1400        56
    16.1600        62
    16.1800        66
    16.2000        52
    16.2200        52
    16.2400        58
    16.2600        46
    16.2800        58
    16.3000        54
    16.3200        56
    16.3400        46
    16.3600        46
    16.3800        50
    16.4000        58
    16.4200        48
    16.4400        78
    16.4600        60
    16.4800        48
    16.5000        64
    16.5200        58
    16.5400        50
    16.5600        52
    16.5800        60
    16.6000        74
    16.6200        56
    16.6400        64
    16.6600        52
    16.6800        60
    16.7000        64
    16.7200        42
    16.7400        42
    16.7600        50
    16.7800        66
    16.8000        50
    16.8200        52
    16.8400        64
    16.8600        52
    16.8800        64
    16.9000        60
    16.9200        52
    16.9400        60
    16.9600        54
    16.9800        58
    17.0000        54
    17.0200        46
    17.0400        60
    17.0600        56
    17.0800        62
    17.1000        58
    17.1200        56
    17.1400        52
    17.1600        60
    17.1800        60
    17.2000        56
    17.2200        42
    17.2400        46
    17.2600        56
    17.2800        48
    17.3000        42
    17.3200        62
    17.3400        52
    17.3600        50
    17.3800        58
    17.4000        54
    17.4200        64
    17.4400        52
    17.4600        54
    17.4800        48
    17.5000        48
    17.5200        64
    17.5400        36
    17.5600        48
    17.5800        44
    17.6000        46
    17.6200        56
    17.6400        48
    17.6600        52
    17.6800        64
    17.7000        56
    17.7200        68
    17.7400        54
    17.7600        46
    17.7800        66
    17.8000        62
    17.8200        60
    17.8400        50
    17.8600        58
    17.8800        56
    17.9000        50
    17.9200        58
    17.9400        60
    17.9600        48
    17.9800        60
    18.0000        62
    18.0200        62
    18.0400        52
    18.0600        64
    18.0800        48
    18.1000        50
    18.1200        56
    18.1400        48
    18.1600        54
    18.1800        50
    18.2000        62
    18.2200        50
    18.2400        54
    18.2600        54
    18.2800        52
    18.3000        52
    18.3200        54
    18.3400        46
    18.3600        48
    18.3800        54
    18.4000        56
    18.4200        46
    18.4400        68
    18.4600        56
    18.4800        64
    18.5000        64
    18.5200        50
    18.5400        58
    18.5600        60
    18.5800        58
    18.6000        52
    18.6200        66
    18.6400        70
    18.6600        54
    18.6800        72
    18.7000        62
    18.7200        46
    18.7400        64
    18.7600        56
    18.7800        44
    18.8000        52
    18.8200        46
    18.8400        40
    18.8600        48
    18.8800        44
    18.9000        50
    18.9200        60
    18.9400        46
    18.9600        52
    18.9800        36
    19.0000        48
    19.0200        54
    19.0400        60
    19.0600        56
    19.0800        50
    19.1000        40
    19.1200        50
    19.1400        40
    19.1600        48
    19.1800        48
    19.2000        44
    19.2200        50
    19.2400        40
    19.2600        54
    19.2800        44
    19.3000        50
    19.3200        48
    19.3400        50
    19.3600        50
    19.3800        42
    19.4000        52
    19.4200        52
    19.4400        52
    19.4600        54
    19.4800        50
    19.5000        44
    19.5200        44
    19.5400        42
    19.5600        44
    19.5800        40
    19.6000        60
    19.6200        60
    19.6400        42
    19.6600        54
    19.6800        48
    19.7000        50
    19.7200        60
    19.7400        50
    19.7600        58
    19.7800        58
    19.8000        42
    19.8200        54
    19.8400        56
    19.8600        52
    19.8800        58
    19.9000        58
    19.9200        76
    19.9400        80
    19.9600        54
    19.9800        70
    20.0000        88
    20.0200        72
    20.0400        72
    20.0600       100
    20.0800       112
    20.1000       108
    20.1200        80
    20.1400        84
    20.1600        58
    20.1800        66
    20.2000        44
    20.2200        60
    20.2400        70
    20.2600        60
    20.2800        40
    20.3000        50
    20.3200        60
    20.3400        48
    20.3600        42
    20.3800        38
    20.4000        60
    20.4200        50
    20.4400        54
    20.4600        52
    20.4800        50
    20.5000        60
    20.5200        64
    20.5400        60
    20.5600        54
    20.5800        70
    20.6000        94
    20.6200        96
    20.6400       124
    20.6600       218
    20.6800       210
    20.7000       208
    20.7200       202
    20.7400       134
    20.7600       102
    20.7800        84
    20.8000        60
    20.8200        58
    20.8400        32
    20.8600        48
    20.8800        46
    20.9000        58
    20.9200        58
    20.9400        56
    20.9600        44
    20.9800        38
    21.0000        50
    21.0200        48
    21.0400        32
    21.0600        48
    21.0800        48
    21.1000        46
    21.1200        38
    21.1400        36
    21.1600        38
    21.1800        38
    21.2000        40
    21.2200        50
    21.2400        54
    21.2600        38
    21.2800        48
    21.3000        30
    21.3200        48
    21.3400        58
    21.3600        40
    21.3800        48
    21.4000        50
    21.4200        32
    21.4400        40
    21.4600        44
    21.4800        60
    21.5000        50
    21.5200        58
    21.5400        54
    21.5600        48
    21.5800        46
    21.6000        44
    21.6200        42
    21.6400        46
    21.6600        34
    21.6800        50
    21.7000        48
    21.7200        54
    21.7400        48
    21.7600        44
    21.7800        34
    21.8000        42
    21.8200        60
    21.8400        38
    21.8600        44
    21.8800        48
    21.9000        58
    21.9200        40
    21.9400        42
    21.9600        44
    21.9800        38
    22.0000        42
    22.0200        50
    22.0400        48
    22.0600        44
    22.0800        48
    22.1000        42
    22.1200        36
    22.1400        52
    22.1600        48
    22.1800        48
    22.2000        48
    22.2200        36
    22.2400        46
    22.2600        48
    22.2800        40
    22.3000        40
    22.3200        44
    22.3400        48
    22.3600        44
    22.3800        56
    22.4000        42
    22.4200        44
    22.4400        44
    22.4600        44
    22.4800        48
    22.5000        60
    22.5200        50
    22.5400        38
    22.5600        42
    22.5800        52
    22.6000        46
    22.6200        48
    22.6400        48
    22.6600        48
    22.6800        56
    22.7000        46
    22.7200        52
    22.7400        62
    22.7600        48
    22.7800        66
    22.8000        78
    22.8200        58
    22.8400        74
    22.8600        92
    22.8800       102
    22.9000        90
    22.9200        74
    22.9400        72
    22.9600       100
    22.9800        98
    23.0000       144
    23.0200       184
    23.0400       224
    23.0600       254
    23.0800       290
    23.1000       306
    23.1200       526
    23.1400       664
    23.1600       666
    23.1800       704
    23.2000       624
    23.2200       520
    23.2400       430
    23.2600       318
    23.2800       236
    23.3000       186
    23.3200       138
    23.3400        88
    23.3600        76
    23.3800        66
    23.4000        66
    23.4200        68
    23.4400        56
    23.4600        60
    23.4800        72
    23.5000        46
    23.5200        54
    23.5400        34
    23.5600        38
    23.5800        62
    23.6000        52
    23.6200        56
    23.6400        44
    23.6600        46
    23.6800        44
    23.7000        46
    23.7200        42
    23.7400        56
    23.7600        54
    23.7800        60
    23.8000        60
    23.8200        58
    23.8400        58
    23.8600        52
    23.8800        48
    23.9000        46
    23.9200        60
    23.9400        36
    23.9600        34
    23.9800        44
    24.0000        58
    24.0200        42
    24.0400        50
    24.0600        42
    24.0800        48
    24.1000        48
    24.1200        54
    24.1400        48
    24.1600        50
    24.1800        36
    24.2000        44
    24.2200        48
    24.2400        44
    24.2600        46
    24.2800        54
    24.3000        58
    24.3200        44
    24.3400        62
    24.3600        44
    24.3800        62
    24.4000        46
    24.4200        56
    24.4400        50
    24.4600        70
    24.4800        54
    24.5000        58
    24.5200        74
    24.5400        62
    24.5600        60
    24.5800        58
    24.6000        46
    24.6200        62
    24.6400        70
    24.6600        82
    24.6800        84
    24.7000        76
    24.7200        98
    24.7400       134
    24.7600       134
    24.7800       204
    24.8000       212
    24.8200       346
    24.8400       806
    24.8600      1312
    24.8800      1178
    24.9000       856
    24.9200       888
    24.9400       794
    24.9600       526
    24.9800       284
    25.0000       234
    25.0200       146
    25.0400       120
    25.0600       102
    25.0800        84
    25.1000        66
    25.1200        66
    25.1400        70
    25.1600        74
    25.1800        90
    25.2000        84
    25.2200        92
    25.2400        98
    25.2600       140
    25.2800       176
    25.3000       164
    25.3200       176
    25.3400       230
    25.3600       286
    25.3800       374
    25.4000       498
    25.4200       632
    25.4400       784
    25.4600       948
    25.4800      1160
    25.5000      1370
    25.5200      1682
    25.5400      1704
    25.5600      1576
    25.5800      1788
    25.6000      1718
    25.6200      1326
    25.6400      1170
    25.6600       894
    25.6800       604
    25.7000       432
    25.7200       264
    25.7400       154
    25.7600       106
    25.7800       114
    25.8000       102
    25.8200        84
    25.8400        70
    25.8600        72
    25.8800        90
    25.9000        66
    25.9200        60
    25.9400        58
    25.9600        50
    25.9800        60
    26.0000        54
    26.0200        54
    26.0400        50
    26.0600        60
    26.0800        50
    26.1000        42
    26.1200        54
    26.1400        50
    26.1600        38
    26.1800        48
    26.2000        56
    26.2200        40
    26.2400        56
    26.2600        36
    26.2800        40
    26.3000        36
    26.3200        36
    26.3400        38
    26.3600        36
    26.3800        36
    26.4000        48
    26.4200        40
    26.4400        40
    26.4600        52
    26.4800        44
    26.5000        28
    26.5200        38
    26.5400        36
    26.5600        32
    26.5800        40
    26.6000        50
    26.6200        24
    26.6400        30
    26.6600        44
    26.6800        40
    26.7000        30
    26.7200        34
    26.7400        32
    26.7600        44
    26.7800        22
    26.8000        26
    26.8200        28
    26.8400        36
    26.8600        34
    26.8800        42
    26.9000        50
    26.9200        34
    26.9400        34
    26.9600        34
    26.9800        34
    27.0000        30
    27.0200        32
    27.0400        46
    27.0600        26
    27.0800        38
    27.1000        34
    27.1200        30
    27.1400        34
    27.1600        30
    27.1800        40
    27.2000        36
    27.2200        42
    27.2400        26
    27.2600        32
    27.2800        28
    27.3000        40
    27.3200        30
    27.3400        30
    27.3600        42
    27.3800        42
    27.4000        26
    27.4200        24
    27.4400        34
    27.4600        44
    27.4800        44
    27.5000        38
    27.5200        38
    27.5400        42
    27.5600        40
    27.5800        40
    27.6000        32
    27.6200        42
    27.6400        54
    27.6600        36
    27.6800        50
    27.7000        42
    27.7200        36
    27.7400        46
    27.7600        30
    27.7800        30
    27.8000        44
    27.8200        44
    27.8400        46
    27.8600        34
    27.8800        34
    27.9000        36
    27.9200        42
    27.9400        42
    27.9600        34
    27.9800        38
    28.0000        26
    28.0200        32
    28.0400        30
    28.0600        36
    28.0800        40
    28.1000        40
    28.1200        34
    28.1400        40
    28.1600        36
    28.1800        40
    28.2000        40
    28.2200        42
    28.2400        34
    28.2600        46
    28.2800        32
    28.3000        34
    28.3200        28
    28.3400        42
    28.3600        38
    28.3800        38
    28.4000        38
    28.4200        36
    28.4400        50
    28.4600        52
    28.4800        42
    28.5000        46
    28.5200        46
    28.5400        46
    28.5600        64
    28.5800        60
    28.6000        48
    28.6200        72
    28.6400        68
    28.6600        82
    28.6800        76
    28.7000        62
    28.7200        92
    28.7400        80
    28.7600        80
    28.7800       124
    28.8000       180
    28.8200       154
    28.8400       166
    28.8600       228
    28.8800       252
    28.9000       328
    28.9200       404
    28.9400       518
    28.9600       574
    28.9800       722
    29.0000       722
    29.0200       804
    29.0400      1172
    29.0600      1258
    29.0800       876
    29.1000       488
    29.1200       556
    29.1400       516
    29.1600       312
    29.1800       154
    29.2000       114
    29.2200        94
    29.2400        88
    29.2600        96
    29.2800       162
    29.3000       160
    29.3200       220
    29.3400       188
    29.3600       236
    29.3800       296
    29.4000       366
    29.4200       572
    29.4400       788
    29.4600       748
    29.4800       522
    29.5000       530
    29.5200       520
    29.5400       408
    29.5600       310
    29.5800       180
    29.6000       114
    29.6200       110
    29.6400        84
    29.6600        66
    29.6800        52
    29.7000        42
    29.7200        48
    29.7400        46
    29.7600        34
    29.7800        36
    29.8000        50
    29.8200        32
    29.8400        28
    29.8600        32
    29.8800        30
    29.9000        36
    29.9200        34
    29.9400        36
    29.9600        36
    29.9800        38
    30.0000        40
    30.0200        38
    30.0400        40
    30.0600        42
    30.0800        26
    30.1000        30
    30.1200        34
    30.1400        42
    30.1600        36
    30.1800        32
    30.2000        22
    30.2200        28
    30.2400        22
    30.2600        30
    30.2800        32
    30.3000        26
    30.3200        20
    30.3400        42
    30.3600        30
    30.3800        30
    30.4000        36
    30.4200        44
    30.4400        24
    30.4600        20
    30.4800        34
    30.5000        40
    30.5200        22
    30.5400        32
    30.5600        40
    30.5800        32
    30.6000        26
    30.6200        40
    30.6400        20
    30.6600        20
    30.6800        28
    30.7000        30
    30.7200        26
    30.7400        36
    30.7600        38
    30.7800        42
    30.8000        28
    30.8200        30
    30.8400        28
    30.8600        30
    30.8800        40
    30.9000        34
    30.9200        30
    30.9400        36
    30.9600        32
    30.9800        46
    31.0000        42
    31.0200        46
    31.0400        42
    31.0600        44
    31.0800        42
    31.1000        40
    31.1200        40
    31.1400        42
    31.1600        52
    31.1800        72
    31.2000        56
    31.2200        62
    31.2400        62
    31.2600        98
    31.2800       154
    31.3000       236
    31.3200       308
    31.3400       316
    31.3600       292
    31.3800       226
    31.4000       218
    31.4200       204
    31.4400       134
    31.4600        94
    31.4800        82
    31.5000        54
    31.5200        62
    31.5400        56
    31.5600        50
    31.5800        28
    31.6000        38
    31.6200        44
    31.6400        30
    31.6600        44
    31.6800        30
    31.7000        38
    31.7200        32
    31.7400        36
    31.7600        34
    31.7800        34
    31.8000        40
    31.8200        32
    31.8400        36
    31.8600        28
    31.8800        28
    31.9000        34
    31.9200        36
    31.9400        34
    31.9600        34
    31.9800        32
    32.0000        38
    32.0200        32
    32.0400        38
    32.0600        32
    32.0800        26
    32.1000        32
    32.1200        30
    32.1400        32
    32.1600        26
    32.1800        38
    32.2000        38
    32.2200        44
    32.2400        32
    32.2600        34
    32.2800        44
    32.3000        36
    32.3200        28
    32.3400        44
    32.3600        62
    32.3800        48
    32.4000        42
    32.4200        64
    32.4400        70
    32.4600        62
    32.4800        66
    32.5000        78
    32.5200        84
    32.5400       100
    32.5600       162
    32.5800       176
    32.6000       202
    32.6200       188
    32.6400       216
    32.6600       244
    32.6800       232
    32.7000       170
    32.7200       154
    32.7400       134
    32.7600       114
    32.7800        94
    32.8000        64
    32.8200        74
    32.8400        62
    32.8600        74
    32.8800        84
    32.9000        78
    32.9200       100
    32.9400       120
    32.9600       108
    32.9800       116
    33.0000       174
    33.0200       190
    33.0400       254
    33.0600       356
    33.0800       446
    33.1000       530
    33.1200       516
    33.1400       646
    33.1600       576
    33.1800       520
    33.2000       452
    33.2200       330
    33.2400       268
    33.2600       226
    33.2800       160
    33.3000       110
    33.3200        78
    33.3400        80
    33.3600        58
    33.3800        46
    33.4000        46
    33.4200        46
    33.4400        36
    33.4600        48
    33.4800        36
    33.5000        34
    33.5200        44
    33.5400        24
    33.5600        30
    33.5800        30
    33.6000        42
    33.6200        24
    33.6400        20
    33.6600        30
    33.6800        34
    33.7000        26
    33.7200        38
    33.7400        46
    33.7600        28
    33.7800        26
    33.8000        24
    33.8200        32
    33.8400        28
    33.8600        22
    33.8800        34
    33.9000        28
    33.9200        18
    33.9400        22
    33.9600        28
    33.9800        28
    34.0000        26
    34.0200        46
    34.0400        38
    34.0600        38
    34.0800        32
    34.1000        36
    34.1200        32
    34.1400        30
    34.1600        28
    34.1800        34
    34.2000        34
    34.2200        38
    34.2400        30
    34.2600        34
    34.2800        38
    34.3000        30
    34.3200        30
    34.3400        20
    34.3600        22
    34.3800        22
    34.4000        26
    34.4200        34
    34.4400        30
    34.4600        20
    34.4800        32
    34.5000        24
    34.5200        36
    34.5400        36
    34.5600        32
    34.5800        28
    34.6000        32
    34.6200        32
    34.6400        26
    34.6600        26
    34.6800        42
    34.7000        28
    34.7200        44
    34.7400        30
    34.7600        40
    34.7800        20
    34.8000        34
    34.8200        18
    34.8400        24
    34.8600        38
    34.8800        28
    34.9000        26
    34.9200        32
    34.9400        20
    34.9600        30
    34.9800        34
    35.0000        34
    35.0200        36
    35.0400        24
    35.0600        30
    35.0800        36
    35.1000        34
    35.1200        28
    35.1400        24
    35.1600        34
    35.1800        32
    35.2000        30
    35.2200        44
    35.2400        34
    35.2600        30
    35.2800        26
    35.3000        32
    35.3200        30
    35.3400        34
    35.3600        34
    35.3800        24
    35.4000        34
    35.4200        28
    35.4400        22
    35.4600        34
    35.4800        28
    35.5000        30
    35.5200        40
    35.5400        28
    35.5600        32
    35.5800        28
    35.6000        32
    35.6200        34
    35.6400        24
    35.6600        40
    35.6800        30
    35.7000        40
    35.7200        44
    35.7400        32
    35.7600        24
    35.7800        26
    35.8000        34
    35.8200        20
    35.8400        28
    35.8600        34
    35.8800        30
    35.9000        30
    35.9200        22
    35.9400        34
    35.9600        28
    35.9800        36
    36.0000        34
    36.0200        28
    36.0400        36
    36.0600        20
    36.0800        26
    36.1000        22
    36.1200        32
    36.1400        30
    36.1600        38
    36.1800        34
    36.2000        32
    36.2200        22
    36.2400        22
    36.2600        40
    36.2800        26
    36.3000        28
    36.3200        28
    36.3400        30
    36.3600        18
    36.3800        26
    36.4000        22
    36.4200        40
    36.4400        30
    36.4600        38
    36.4800        26
    36.5000        30
    36.5200        28
    36.5400        32
    36.5600        28
    36.5800        40
    36.6000        26
    36.6200        30
    36.6400        34
    36.6600        26
    36.6800        36
    36.7000        28
    36.7200        32
    36.7400        22
    36.7600        24
    36.7800        16
    36.8000        44
    36.8200        24
    36.8400        34
    36.8600        38
    36.8800        38
    36.9000        32
    36.9200        38
    36.9400        54
    36.9600        36
    36.9800        34
    37.0000        28
    37.0200        32
    37.0400        24
    37.0600        34
    37.0800        36
    37.1000        32
    37.1200        34
    37.1400        34
    37.1600        40
    37.1800        20
    37.2000        28
    37.2200        32
    37.2400        32
    37.2600        26
    37.2800        30
    37.3000        24
    37.3200        22
    37.3400        30
    37.3600        20
    37.3800        24
    37.4000        30
    37.4200        28
    37.4400        24
    37.4600        44
    37.4800        30
    37.5000        38
    37.5200        32
    37.5400        32
    37.5600        30
    37.5800        40
    37.6000        28
    37.6200        28
    37.6400        28
    37.6600        32
    37.6800        52
    37.7000        44
    37.7200        62
    37.7400        60
    37.7600        64
    37.7800        66
    37.8000        50
    37.8200        60
    37.8400        84
    37.8600       104
    37.8800       132
    37.9000       106
    37.9200       120
    37.9400       118
    37.9600       100
    37.9800        98
    38.0000        68
    38.0200        44
    38.0400        64
    38.0600        54
    38.0800        42
    38.1000        44
    38.1200        26
    38.1400        42
    38.1600        30
    38.1800        42
    38.2000        30
    38.2200        36
    38.2400        34
    38.2600        44
    38.2800        36
    38.3000        26
    38.3200        32
    38.3400        28
    38.3600        38
    38.3800        30
    38.4000        26
    38.4200        34
    38.4400        32
    38.4600        20
    38.4800        30
    38.5000        22
    38.5200        26
    38.5400        26
    38.5600        32
    38.5800        32
    38.6000        26
    38.6200        32
    38.6400        30
    38.6600        48
    38.6800        22
    38.7000        46
    38.7200        38
    38.7400        44
    38.7600        44
    38.7800        32
    38.8000        42
    38.8200        48
    38.8400        48
    38.8600        60
    38.8800        74
    38.9000        80
    38.9200       106
    38.9400       112
    38.9600       172
    38.9800       218
    39.0000       208
    39.0200       256
    39.0400       200
    39.0600       184
    39.0800       168
    39.1000       146
    39.1200       158
    39.1400       122
    39.1600        96
    39.1800        80
    39.2000        72
    39.2200        64
    39.2400        64
    39.2600        52
    39.2800        50
    39.3000        64
    39.3200        52
    39.3400        66
    39.3600        58
    39.3800        78
    39.4000        56
    39.4200        56
    39.4400        86
    39.4600        84
    39.4800        84
    39.5000        60
    39.5200        54
    39.5400        36
    39.5600        46
    39.5800        38
    39.6000        32
    39.6200        40
    39.6400        36
    39.6600        32
    39.6800        38
    39.7000        38
    39.7200        30
    39.7400        32
    39.7600        26
    39.7800        28
    39.8000        26
    39.8200        28
    39.8400        22
    39.8600        36
    39.8800        20
    39.9000        34
    39.9200        38
    39.9400        30
    39.9600        30
    39.9800        40
    40.0000        34
    40.0200        32
    40.0400        26
    40.0600        40
    40.0800        22
    40.1000        32
    40.1200        26
    40.1400        26
    40.1600        24
    40.1800        26
    40.2000        30
    40.2200        30
    40.2400        26
    40.2600        24
    40.2800        22
    40.3000        40
    40.3200        26
    40.3400        30
    40.3600        26
    40.3800        32
    40.4000        24
    40.4200        16
    40.4400        38
    40.4600        30
    40.4800        28
    40.5000        28
    40.5200        44
    40.5400        34
    40.5600        34
    40.5800        36
    40.6000        28
    40.6200        38
    40.6400        26
    40.6600        38
    40.6800        28
    40.7000        30
    40.7200        48
    40.7400        40
    40.7600        52
    40.7800        44
    40.8000        52
    40.8200        70
    40.8400        68
    40.8600        74
    40.8800        86
    40.9000       144
    40.9200       110
    40.9400        80
    40.9600        60
    40.9800        60
    41.0000        70
    41.0200        66
    41.0400        56
    41.0600        54
    41.0800        38
    41.1000        44
    41.1200        30
    41.1400        28
    41.1600        32
    41.1800        30
    41.2000        46
    41.2200        28
    41.2400        44
    41.2600        22
    41.2800        30
    41.3000        40
    41.3200        24
    41.3400        32
    41.3600        38
    41.3800        38
    41.4000        30
    41.4200        24
    41.4400        34
    41.4600        28
    41.4800        42
    41.5000        36
    41.5200        40
    41.5400        28
    41.5600        36
    41.5800        36
    41.6000        36
    41.6200        46
    41.6400        42
    41.6600        32
    41.6800        42
    41.7000        56
    41.7200        44
    41.7400        46
    41.7600        60
    41.7800        86
    41.8000       120
    41.8200       148
    41.8400       214
    41.8600       256
    41.8800       238
    41.9000       172
    41.9200       172
    41.9400       166
    41.9600       184
    41.9800       208
    42.0000       212
    42.0200       230
    42.0400       204
    42.0600       200
    42.0800       216
    42.1000       238
    42.1200       194
    42.1400       160
    42.1600       132
    42.1800       150
    42.2000       122
    42.2200       120
    42.2400        64
    42.2600        54
    42.2800        54
    42.3000        44
    42.3200        44
    42.3400        44
    42.3600        38
    42.3800        52
    42.4000        36
    42.4200        32
    42.4400        40
    42.4600        42
    42.4800        32
    42.5000        30
    42.5200        36
    42.5400        38
    42.5600        32
    42.5800        32
    42.6000        32
    42.6200        40
    42.6400        44
    42.6600        38
    42.6800        36
    42.7000        36
    42.7200        38
    42.7400        32
    42.7600        38
    42.7800        30
    42.8000        40
    42.8200        30
    42.8400        30
    42.8600        28
    42.8800        36
    42.9000        38
    42.9200        22
    42.9400        40
    42.9600        32
    42.9800        28
    43.0000        30
    43.0200        28
    43.0400        30
    43.0600        30
    43.0800        26
    43.1000        34
    43.1200        34
    43.1400        28
    43.1600        32
    43.1800        40
    43.2000        26
    43.2200        22
    43.2400        38
    43.2600        40
    43.2800        34
    43.3000        30
    43.3200        32
    43.3400        34
    43.3600        30
    43.3800        34
    43.4000        32
    43.4200        30
    43.4400        40
    43.4600        36
    43.4800        40
    43.5000        32
    43.5200        46
    43.5400        50
    43.5600        62
    43.5800        68
    43.6000        98
    43.6200       110
    43.6400        96
    43.6600        78
    43.6800        78
    43.7000        52
    43.7200        64
    43.7400        44
    43.7600        40
    43.7800        36
    43.8000        48
    43.8200        34
    43.8400        24
    43.8600        26
    43.8800        32
    43.9000        26
    43.9200        36
    43.9400        46
    43.9600        42
    43.9800        30
    44.0000        34
    44.0200        36
    44.0400        34
    44.0600        34
    44.0800        32
    44.1000        36
    44.1200        36
    44.1400        28
    44.1600        40
    44.1800        16
    44.2000        30
    44.2200        22
    44.2400        26
    44.2600        30
    44.2800        38
    44.3000        26
    44.3200        30
    44.3400        38
    44.3600        32
    44.3800        36
    44.4000        48
    44.4200        42
    44.4400        32
    44.4600        40
    44.4800        46
    44.5000        38
    44.5200        40
    44.5400        40
    44.5600        44
    44.5800        38
    44.6000        38
    44.6200        40
    44.6400        46
    44.6600        44
    44.6800        66
    44.7000        92
    44.7200       110
    44.7400       144
    44.7600       144
    44.7800       144
    44.8000       126
    44.8200       104
    44.8400       150
    44.8600       144
    44.8800       184
    44.9000       150
    44.9200       152
    44.9400       152
    44.9600       168
    44.9800       158
    45.0000       160
    45.0200       120
    45.0400        98
    45.0600       110
    45.0800        98
    45.1000        72
    45.1200        60
    45.1400        64
    45.1600        42
    45.1800        50
    45.2000        36
    45.2200        36
    45.2400        30
    45.2600        42
    45.2800        32
    45.3000        40
    45.3200        38
    45.3400        40
    45.3600        28
    45.3800        30
    45.4000        32
    45.4200        20
    45.4400        42
    45.4600        36
    45.4800        32
    45.5000        24
    45.5200        32
    45.5400        30
    45.5600        36
    45.5800        34
    45.6000        34
    45.6200        24
    45.6400        26
    45.6600        26
    45.6800        26
    45.7000        34
    45.7200        36
    45.7400        30
    45.7600        32
    45.7800        28
    45.8000        32
    45.8200        34
    45.8400        42
    45.8600        24
    45.8800        38
    45.9000        36
    45.9200        22
    45.9400        26
    45.9600        24
    45.9800        28
    46.0000        46
    46.0200        20
    46.0400        40
    46.0600        32
    46.0800        34
    46.1000        28
    46.1200        38
    46.1400        22
    46.1600        38
    46.1800        22
    46.2000        38
    46.2200        36
    46.2400        34
    46.2600        32
    46.2800        24
    46.3000        26
    46.3200        42
    46.3400        30
    46.3600        24
    46.3800        42
    46.4000        24
    46.4200        38
    46.4400        34
    46.4600        24
    46.4800        34
    46.5000        34
    46.5200        32
    46.5400        30
    46.5600        30
    46.5800        22
    46.6000        26
    46.6200        36
    46.6400        56
    46.6600        52
    46.6800        58
    46.7000        60
    46.7200        44
    46.7400        48
    46.7600        48
    46.7800        40
    46.8000        46
    46.8200        38
    46.8400        38
    46.8600        38
    46.8800        38
    46.9000        44
    46.9200        54
    46.9400        40
    46.9600        50
    46.9800        50
    47.0000        66
    47.0200        88
    47.0400        74
    47.0600        94
    47.0800       124
    47.1000       152
    47.1200       196
    47.1400       240
    47.1600       298
    47.1800       308
    47.2000       328
    47.2200       294
    47.2400       246
    47.2600       312
    47.2800       358
    47.3000       386
    47.3200       510
    47.3400       702
    47.3600       816
    47.3800       668
    47.4000       600
    47.4200       508
    47.4400       546
    47.4600       868
    47.4800      1048
    47.5000       882
    47.5200       758
    47.5400       684
    47.5600       428
    47.5800       386
    47.6000       446
    47.6200       444
    47.6400       326
    47.6600       312
    47.6800       202
    47.7000       144
    47.7200       146
    47.7400       198
    47.7600       198
    47.7800       240
    47.8000       250
    47.8200       292
    47.8400       304
    47.8600       208
    47.8800       148
    47.9000       160
    47.9200       180
    47.9400       184
    47.9600       188
    47.9800       148
    48.0000        76
    48.0200        60
    48.0400        54
    48.0600        36
    48.0800        50
    48.1000        46
    48.1200        36
    48.1400        38
    48.1600        28
    48.1800        30
    48.2000        36
    48.2200        40
    48.2400        30
    48.2600        34
    48.2800        26
    48.3000        28
    48.3200        24
    48.3400        38
    48.3600        36
    48.3800        46
    48.4000        28
    48.4200        40
    48.4400        42
    48.4600        38
    48.4800        38
    48.5000        22
    48.5200        46
    48.5400        32
    48.5600        30
    48.5800        32
    48.6000        34
    48.6200        34
    48.6400        28
    48.6600        34
    48.6800        32
    48.7000        26
    48.7200        32
    48.7400        34
    48.7600        16
    48.7800        32
    48.8000        40
    48.8200        28
    48.8400        28
    48.8600        34
    48.8800        30
    48.9000        40
    48.9200        28
    48.9400        34
    48.9600        36
    48.9800        32
    49.0000        24
    49.0200        30
    49.0400        34
    49.0600        36
    49.0800        28
    49.1000        32
    49.1200        32
    49.1400        24
    49.1600        38
    49.1800        28
    49.2000        40
    49.2200        44
    49.2400        36
    49.2600        28
    49.2800        22
    49.3000        32
    49.3200        34
    49.3400        32
    49.3600        38
    49.3800        28
    49.4000        36
    49.4200        32
    49.4400        32
    49.4600        38
    49.4800        30
    49.5000        28
    49.5200        28
    49.5400        30
    49.5600        44
    49.5800        48
    49.6000        42
    49.6200        58
    49.6400        68
    49.6600        94
    49.6800        92
    49.7000        72
    49.7200        72
    49.7400        58
    49.7600        54
    49.7800        48
    49.8000        58
    49.8200        64
    49.8400        54
    49.8600        50
    49.8800        44
    49.9000        34
    49.9200        44
    49.9400        54
    49.9600        78
    49.9800        88
    50.0000       108
    50.0200       118
    50.0400       112
    50.0600        94
    50.0800        90
    50.1000        78
    50.1200        82
    50.1400        76
    50.1600        74
    50.1800        66
    50.2000        68
    50.2200        50
    50.2400        38
    50.2600        42
    50.2800        28
    50.3000        32
    50.3200        30
    50.3400        40
    50.3600        16
    50.3800        28
    50.4000        26
    50.4200        30
    50.4400        32
    50.4600        32
    50.4800        36
    50.5000        26
    50.5200        28
    50.5400        24
    50.5600        32
    50.5800        22
    50.6000        26
    50.6200        28
    50.6400        26
    50.6600        20
    50.6800        46
    50.7000        32
    50.7200        26
    50.7400        24
    50.7600        30
    50.7800        28
    50.8000        34
    50.8200        32
    50.8400        26
    50.8600        32
    50.8800        14
    50.9000        30
    50.9200        30
    50.9400        20
    50.9600        30
    50.9800        36
    51.0000        24
    51.0200        36
    51.0400        36
    51.0600        28
    51.0800        30
    51.1000        34
    51.1200        28
    51.1400        40
    51.1600        30
    51.1800        32
    51.2000        38
    51.2200        34
    51.2400        38
    51.2600        30
    51.2800        40
    51.3000        22
    51.3200        20
    51.3400        22
    51.3600        30
    51.3800        34
    51.4000        32
    51.4200        48
    51.4400        24
    51.4600        32
    51.4800        30
    51.5000        20
    51.5200        24
    51.5400        30
    51.5600        36
    51.5800        28
    51.6000        32
    51.6200        28
    51.6400        16
    51.6600        28
    51.6800        24
    51.7000        32
    51.7200        32
    51.7400        36
    51.7600        26
    51.7800        28
    51.8000        34
    51.8200        30
    51.8400        32
    51.8600        30
    51.8800        30
    51.9000        34
    51.9200        36
    51.9400        38
    51.9600        34
    51.9800        46
    52.0000        66
    52.0200        66
    52.0400        80
    52.0600       110
    52.0800        98
    52.1000        86
    52.1200        70
    52.1400        66
    52.1600        84
    52.1800        88
    52.2000       110
    52.2200       102
    52.2400        98
    52.2600        90
    52.2800        66
    52.3000        42
    52.3200        70
    52.3400        54
    52.3600        56
    52.3800        46
    52.4000        46
    52.4200        50
    52.4400        30
    52.4600        36
    52.4800        28
    52.5000        26
    52.5200        34
    52.5400        36
    52.5600        48
    52.5800        48
    52.6000        44
    52.6200        58
    52.6400        36
    52.6600        46
    52.6800        50
    52.7000        40
    52.7200        34
    52.7400        48
    52.7600        30
    52.7800        42
    52.8000        30
    52.8200        40
    52.8400        38
    52.8600        32
    52.8800        22
    52.9000        28
    52.9200        30
    52.9400        28
    52.9600        20
    52.9800        30
    53.0000        36
    53.0200        22
    53.0400        40
    53.0600        40
    53.0800        26
    53.1000        36
    53.1200        32
    53.1400        24
    53.1600        26
    53.1800        32
    53.2000        28
    53.2200        40
    53.2400        34
    53.2600        42
    53.2800        40
    53.3000        44
    53.3200        32
    53.3400        40
    53.3600        48
    53.3800        90
    53.4000       124
    53.4200       192
    53.4400       200
    53.4600       136
    53.4800       140
    53.5000       114
    53.5200       160
    53.5400       168
    53.5600       170
    53.5800       140
    53.6000       122
    53.6200       108
    53.6400        82
    53.6600        84
    53.6800        94
    53.7000        92
    53.7200        52
    53.7400        58
    53.7600        68
    53.7800        36
    53.8000        32
    53.8200        38
    53.8400        32
    53.8600        32
    53.8800        30
    53.9000        36
    53.9200        28
    53.9400        32
    53.9600        26
    53.9800        40
    54.0000        34
    54.0200        26
    54.0400        34
    54.0600        40
    54.0800        32
    54.1000        22
    54.1200        24
    54.1400        34
    54.1600        26
    54.1800        24
    54.2000        30
    54.2200        22
    54.2400        28
    54.2600        30
    54.2800        28
    54.3000        28
    54.3200        26
    54.3400        34
    54.3600        34
    54.3800        34
    54.4000        42
    54.4200        34
    54.4400        46
    54.4600        50
    54.4800        56
    54.5000        46
    54.5200        64
    54.5400        62
    54.5600        56
    54.5800        58
    54.6000        60
    54.6200        60
    54.6400        70
    54.6600        48
    54.6800        76
    54.7000        60
    54.7200        44
    54.7400        50
    54.7600        46
    54.7800        48
    54.8000        24
    54.8200        38
    54.8400        40
    54.8600        32
    54.8800        26
    54.9000        24
    54.9200        36
    54.9400        24
    54.9600        34
    54.9800        28
    55.0000        28
    55.0200        28
    55.0400        24
    55.0600        20
    55.0800        30
    55.1000        30
    55.1200        24
    55.1400        38
    55.1600        30
    55.1800        30
    55.2000        34
    55.2200        30
    55.2400        26
    55.2600        26
    55.2800        32
    55.3000        32
    55.3200        26
    55.3400        28
    55.3600        32
    55.3800        32
    55.4000        28
    55.4200        22
    55.4400        22
    55.4600        24
    55.4800        30
    55.5000        20
    55.5200        28
    55.5400        20
    55.5600        22
    55.5800        28
    55.6000        24
    55.6200        24
    55.6400        34
    55.6600        30
    55.6800        30
    55.7000        32
    55.7200        32
    55.7400        28
    55.7600        26
    55.7800        36
    55.8000        38
    55.8200        30
    55.8400        24
    55.8600        24
    55.8800        38
    55.9000        34
    55.9200        30
    55.9400        24
    55.9600        20
    55.9800        34
    56.0000        28
    56.0200        32
    56.0400        22
    56.0600        32
    56.0800        28
    56.1000        42
    56.1200        32
    56.1400        24
    56.1600        32
    56.1800        22
    56.2000        30
    56.2200        24
    56.2400        22
    56.2600        24
    56.2800        26
    56.3000        36
    56.3200        34
    56.3400        30
    56.3600        32
    56.3800        36
    56.4000        46
    56.4200        34
    56.4400        28
    56.4600        30
    56.4800        28
    56.5000        56
    56.5200        32
    56.5400        36
    56.5600        52
    56.5800        48
    56.6000        94
    56.6200       176
    56.6400       204
    56.6600       158
    56.6800       166
    56.7000       148
    56.7200        94
    56.7400        84
    56.7600        94
    56.7800       102
    56.8000        86
    56.8200       116
    56.8400        90
    56.8600        84
    56.8800        74
    56.9000        38
    56.9200        32
    56.9400        34
    56.9600        32
    56.9800        22
    57.0000        20
    57.0200        46
    57.0400        30
    57.0600        28
    57.0800        32
    57.1000        42
    57.1200        44
    57.1400        58
    57.1600        74
    57.1800        92
    57.2000        98
    57.2200        98
    57.2400       114
    57.2600       116
    57.2800        94
    57.3000        64
    57.3200        50
    57.3400        68
    57.3600        70
    57.3800        70
    57.4000        70
    57.4200        56
    57.4400        54
    57.4600        42
    57.4800        30
    57.5000        32
    57.5200        32
    57.5400        18
    57.5600        30
    57.5800        30
    57.6000        32
    57.6200        22
    57.6400        30
    57.6600        22
    57.6800        22
    57.7000        38
    57.7200        22
    57.7400        24
    57.7600        24
    57.7800        38
    57.8000        28
    57.8200        24
    57.8400        36
    57.8600        34
    57.8800        24
    57.9000        32
    57.9200        30
    57.9400        32
    57.9600        26
    57.9800        46
    58.0000        32
    58.0200        42
    58.0400        38
    58.0600        22
    58.0800        36
    58.1000        26
    58.1200        24
    58.1400        42
    58.1600        40
    58.1800        32
    58.2000        30
    58.2200        30
    58.2400        30
    58.2600        32
    58.2800        32
    58.3000        32
    58.3200        28
    58.3400        26
    58.3600        26
    58.3800        36
    58.4000        32
    58.4200        34
    58.4400        24
    58.4600        36
    58.4800        38
    58.5000        46
    58.5200        42
    58.5400        34
    58.5600        32
    58.5800        26
    58.6000        26
    58.6200        28
    58.6400        32
    58.6600        40
    58.6800        34
    58.7000        30
    58.7200        28
    58.7400        34
    58.7600        34
    58.7800        28
    58.8000        36
    58.8200        46
    58.8400        36
    58.8600        42
    58.8800        58
    58.9000        94
    58.9200       116
    58.9400       178
    58.9600       206
    58.9800       266
    59.0000       194
    59.0200       148
    59.0400       110
    59.0600       122
    59.0800       102
    59.1000       144
    59.1200       162
    59.1400       174
    59.1600       178
    59.1800       162
    59.2000       106
    59.2200       114
    59.2400        84
    59.2600        78
    59.2800        70
    59.3000        64
    59.3200        46
    59.3400        56
    59.3600        68
    59.3800        94
    59.4000        86
    59.4200        68
    59.4400       102
    59.4600        62
    59.4800        52
    59.5000        46
    59.5200        38
    59.5400        58
    59.5600        46
    59.5800        46
    59.6000        48
    59.6200        58
    59.6400        42
    59.6600        38
    59.6800        34
    59.7000        24
    59.7200        28
    59.7400        32
    59.7600        30
    59.7800        26
    59.8000        26
    59.8200        26
    59.8400        28
    59.8600        32
    59.8800        30
    59.9000        26
    59.9200        18
    59.9400        34
    59.9600        32
    59.9800        40
    60.0000        30
    60.0200        36
    60.0400        22
    60.0600        26
    60.0800        28
    60.1000        34
    60.1200        26
    60.1400        28
    60.1600        26
    60.1800        22
    60.2000        26
    60.2200        24
    60.2400        38
    60.2600        34
    60.2800        34
    60.3000        32
    60.3200        26
    60.3400        34
    60.3600        30
    60.3800        24
    60.4000        24
    60.4200        34
    60.4400        32
    60.4600        36
    60.4800        36
    60.5000        38
    60.5200        40
    60.5400        20
    60.5600        18
    60.5800        38
    60.6000        30
    60.6200        26
    60.6400        22
    60.6600        30
    60.6800        26
    60.7000        28
    60.7200        20
    60.7400        28
    60.7600        32
    60.7800        32
    60.8000        40
    60.8200        38
    60.8400        40
    60.8600        36
    60.8800        42
    60.9000        40
    60.9200        34
    60.9400        44
    60.9600        42
    60.9800        50
    61.0000        64
    61.0200        50
    61.0400        62
    61.0600        56
    61.0800        72
    61.1000       132
    61.1200       138
    61.1400       136
    61.1600       126
    61.1800       104
    61.2000        96
    61.2200        74
    61.2400        60
    61.2600        66
    61.2800        84
    61.3000       102
    61.3200       102
    61.3400        84
    61.3600        56
    61.3800        40
    61.4000        42
    61.4200        36
    61.4400        34
    61.4600        32
    61.4800        26
    61.5000        16
    61.5200        28
    61.5400        22
    61.5600        24
    61.5800        42
    61.6000        20
    61.6200        28
    61.6400        30
    61.6600        34
    61.6800        26
    61.7000        32
    61.7200        30
    61.7400        26
    61.7600        30
    61.7800        24
    61.8000        36
    61.8200        28
    61.8400        16
    61.8600        24
    61.8800        36
    61.9000        20
    61.9200        34
    61.9400        30
    61.9600        24
    61.9800        26
    62.0000        40
    62.0200        36
    62.0400        36
    62.0600        36
    62.0800        44
    62.1000        40
    62.1200        32
    62.1400        36
    62.1600        28
    62.1800        36
    62.2000        32
    62.2200        34
    62.2400        38
    62.2600        42
    62.2800        36
    62.3000        26
    62.3200        34
    62.3400        32
    62.3600        46
    62.3800        42
    62.4000        32
    62.4200        36
    62.4400        32
    62.4600        46
    62.4800        42
    62.5000        60
    62.5200        72
    62.5400       104
    62.5600       160
    62.5800       224
    62.6000       224
    62.6200       154
    62.6400       114
    62.6600        80
    62.6800        56
    62.7000        62
    62.7200        66
    62.7400        86
    62.7600       142
    62.7800        92
    62.8000        84
    62.8200        60
    62.8400        58
    62.8600        34
    62.8800        24
    62.9000        20
    62.9200        28
    62.9400        38
    62.9600        38
    62.9800        36
    63.0000        34
    63.0200        52
    63.0400        44
    63.0600        58
    63.0800        46
    63.1000        54
    63.1200        50
    63.1400        54
    63.1600        72
    63.1800        80
    63.2000       120
    63.2200       106
    63.2400        72
    63.2600        76
    63.2800        78
    63.3000        80
    63.3200        76
    63.3400        72
    63.3600       100
    63.3800       148
    63.4000       182
    63.4200       220
    63.4400       222
    63.4600       236
    63.4800       220
    63.5000       184
    63.5200       190
    63.5400       206
    63.5600       174
    63.5800       170
    63.6000       154
    63.6200       146
    63.6400       136
    63.6600       136
    63.6800       106
    63.7000       112
    63.7200        94
    63.7400        86
    63.7600        54
    63.7800        50
    63.8000        40
    63.8200        38
    63.8400        38
    63.8600        50
    63.8800        32
    63.9000        32
    63.9200        36
    63.9400        28
    63.9600        38
    63.9800        34
    64.0000        28
    64.0200        30
    64.0400        28
    64.0600        32
    64.0800        38
    64.1000        18
    64.1200        36
    64.1400        26
    64.1600        28
    64.1800        32
    64.2000        30
    64.2200        24
    64.2400        20
    64.2600        34
    64.2800        32
    64.3000        30
    64.3200        28
    64.3400        24
    64.3600        24
    64.3800        34
    64.4000        28
    64.4200        26
    64.4400        38
    64.4600        34
    64.4800        40
    64.5000        22
    64.5200        32
    64.5400        14
    64.5600        32
    64.5800        26
    64.6000        24
    64.6200        24
    64.6400        30
    64.6600        34
    64.6800        22
    64.7000        38
    64.7200        24
    64.7400        30
    64.7600        22
    64.7800        22
    64.8000        32
    64.8200        34
    64.8400        32
    64.8600        20
    64.8800        30
    64.9000        34
    64.9200        34
    64.9400        32
    64.9600        30
    64.9800        32
    65.0000        40
