/////////////////////////////////////////////////////////////////////////////////
/// Profile Data Ascii Dump (XRD)                                             ///
/////////////////////////////////////////////////////////////////////////////////

  Group     : Swayze
  Data      : GDS41-re
  File Name : GDS41-re.RAW

# Profile Datafile
          comment             = Nontronite 
          date & time         = 08-04-29 07:12:55 

# Measurement Condition
    X-ray tube
          target              = Cu 
          voltage             = 40.0 (kV)
          current             = 30.0 (mA)
    Slits
          divergence slit     = 2.00000 (deg) 
          scatter slit        = 2.00000 (deg) 
          receiving slit      = 0.15000 (mm)  
    Scanning
          drive axis          = Theta-2Theta 
          scan range          =    4.000 -   65.000 
          scan mode           = Continuous Scan 
          scan speed          =   2.0000 (deg/min) 
          sampling pitch      =   0.0200 (deg) 
          preset time         =   0.60 (sec) 

# Data      [ Total No. = 3051 ]
  <2Theta>   <   I   >
     4.0000       208
     4.0200       160
     4.0400       194
     4.0600       156
     4.0800       212
     4.1000       176
     4.1200       206
     4.1400       190
     4.1600       186
     4.1800       182
     4.2000       158
     4.2200       186
     4.2400       206
     4.2600       190
     4.2800       160
     4.3000       178
     4.3200       222
     4.3400       196
     4.3600       188
     4.3800       174
     4.4000       172
     4.4200       192
     4.4400       172
     4.4600       184
     4.4800       146
     4.5000       184
     4.5200       166
     4.5400       184
     4.5600       174
     4.5800       176
     4.6000       170
     4.6200       176
     4.6400       168
     4.6600       162
     4.6800       172
     4.7000       164
     4.7200       166
     4.7400       164
     4.7600       184
     4.7800       156
     4.8000       160
     4.8200       170
     4.8400       166
     4.8600       174
     4.8800       152
     4.9000       174
     4.9200       170
     4.9400       148
     4.9600       168
     4.9800       186
     5.0000       158
     5.0200       168
     5.0400       166
     5.0600       172
     5.0800       170
     5.1000       166
     5.1200       158
     5.1400       194
     5.1600       156
     5.1800       196
     5.2000       166
     5.2200       180
     5.2400       198
     5.2600       178
     5.2800       148
     5.3000       176
     5.3200       184
     5.3400       158
     5.3600       166
     5.3800       176
     5.4000       164
     5.4200       202
     5.4400       166
     5.4600       174
     5.4800       164
     5.5000       154
     5.5200       178
     5.5400       172
     5.5600       196
     5.5800       144
     5.6000       202
     5.6200       180
     5.6400       164
     5.6600       164
     5.6800       188
     5.7000       168
     5.7200       196
     5.7400       154
     5.7600       162
     5.7800       172
     5.8000       192
     5.8200       212
     5.8400       200
     5.8600       224
     5.8800       196
     5.9000       172
     5.9200       202
     5.9400       188
     5.9600       212
     5.9800       218
     6.0000       214
     6.0200       232
     6.0400       276
     6.0600       232
     6.0800       234
     6.1000       264
     6.1200       260
     6.1400       270
     6.1600       274
     6.1800       300
     6.2000       278
     6.2200       262
     6.2400       272
     6.2600       268
     6.2800       240
     6.3000       234
     6.3200       234
     6.3400       188
     6.3600       224
     6.3800       216
     6.4000       220
     6.4200       224
     6.4400       200
     6.4600       192
     6.4800       200
     6.5000       184
     6.5200       186
     6.5400       170
     6.5600       166
     6.5800       186
     6.6000       172
     6.6200       160
     6.6400       142
     6.6600       156
     6.6800       148
     6.7000       148
     6.7200       194
     6.7400       140
     6.7600       144
     6.7800       140
     6.8000       142
     6.8200       134
     6.8400       126
     6.8600       150
     6.8800       138
     6.9000       128
     6.9200       144
     6.9400       146
     6.9600       154
     6.9800       126
     7.0000       134
     7.0200       148
     7.0400       134
     7.0600       120
     7.0800       138
     7.1000       114
     7.1200       130
     7.1400       108
     7.1600       120
     7.1800       114
     7.2000       138
     7.2200       118
     7.2400       130
     7.2600       140
     7.2800       126
     7.3000       112
     7.3200       118
     7.3400       118
     7.3600       118
     7.3800       126
     7.4000       144
     7.4200       104
     7.4400       106
     7.4600       114
     7.4800       102
     7.5000       132
     7.5200       130
     7.5400       120
     7.5600       124
     7.5800       112
     7.6000       116
     7.6200       136
     7.6400       112
     7.6600       122
     7.6800       114
     7.7000       126
     7.7200       130
     7.7400       114
     7.7600       108
     7.7800       100
     7.8000       124
     7.8200       116
     7.8400       108
     7.8600       114
     7.8800       128
     7.9000       118
     7.9200       112
     7.9400       116
     7.9600       110
     7.9800       122
     8.0000       134
     8.0200        98
     8.0400       132
     8.0600       124
     8.0800       126
     8.1000       118
     8.1200       106
     8.1400       122
     8.1600       112
     8.1800       128
     8.2000       114
     8.2200       130
     8.2400       116
     8.2600       114
     8.2800       110
     8.3000       112
     8.3200       122
     8.3400       112
     8.3600       108
     8.3800       120
     8.4000       126
     8.4200       128
     8.4400       140
     8.4600       112
     8.4800       136
     8.5000       122
     8.5200       106
     8.5400       120
     8.5600       122
     8.5800       120
     8.6000       136
     8.6200       132
     8.6400       112
     8.6600       134
     8.6800       130
     8.7000       118
     8.7200       140
     8.7400       134
     8.7600       124
     8.7800       122
     8.8000       124
     8.8200       126
     8.8400       106
     8.8600       140
     8.8800       110
     8.9000       138
     8.9200       110
     8.9400       108
     8.9600       138
     8.9800       100
     9.0000       112
     9.0200       118
     9.0400       140
     9.0600       100
     9.0800       124
     9.1000       122
     9.1200        98
     9.1400       122
     9.1600       118
     9.1800       124
     9.2000       118
     9.2200       114
     9.2400        98
     9.2600       146
     9.2800       118
     9.3000       124
     9.3200       118
     9.3400       108
     9.3600       104
     9.3800       112
     9.4000       134
     9.4200       108
     9.4400       108
     9.4600       114
     9.4800        88
     9.5000       114
     9.5200       104
     9.5400       122
     9.5600       136
     9.5800       106
     9.6000       114
     9.6200       128
     9.6400       102
     9.6600       110
     9.6800       134
     9.7000       118
     9.7200       118
     9.7400       128
     9.7600       126
     9.7800       126
     9.8000       128
     9.8200        92
     9.8400       134
     9.8600       108
     9.8800       120
     9.9000       112
     9.9200       102
     9.9400       126
     9.9600       122
     9.9800        96
    10.0000       126
    10.0200       112
    10.0400       100
    10.0600       114
    10.0800       106
    10.1000       132
    10.1200       116
    10.1400       108
    10.1600        92
    10.1800       122
    10.2000        98
    10.2200       114
    10.2400       128
    10.2600       104
    10.2800        96
    10.3000       132
    10.3200       120
    10.3400        94
    10.3600       120
    10.3800       124
    10.4000        92
    10.4200       118
    10.4400       118
    10.4600        84
    10.4800       108
    10.5000        94
    10.5200       106
    10.5400        80
    10.5600        96
    10.5800       102
    10.6000       118
    10.6200       112
    10.6400        92
    10.6600       104
    10.6800       104
    10.7000        96
    10.7200       110
    10.7400        98
    10.7600        90
    10.7800       106
    10.8000       102
    10.8200       100
    10.8400        94
    10.8600       118
    10.8800       106
    10.9000       116
    10.9200        96
    10.9400       100
    10.9600        80
    10.9800       112
    11.0000       112
    11.0200       100
    11.0400       106
    11.0600        98
    11.0800       106
    11.1000       104
    11.1200       106
    11.1400       112
    11.1600        88
    11.1800        76
    11.2000       108
    11.2200        86
    11.2400       106
    11.2600        96
    11.2800       104
    11.3000       106
    11.3200       112
    11.3400        94
    11.3600        78
    11.3800       106
    11.4000        96
    11.4200        90
    11.4400       100
    11.4600        78
    11.4800        92
    11.5000        92
    11.5200       114
    11.5400        84
    11.5600        86
    11.5800        82
    11.6000       100
    11.6200        86
    11.6400        88
    11.6600        96
    11.6800       108
    11.7000       102
    11.7200        90
    11.7400       102
    11.7600       110
    11.7800       100
    11.8000        78
    11.8200       106
    11.8400        98
    11.8600        70
    11.8800        94
    11.9000       116
    11.9200       112
    11.9400        98
    11.9600       112
    11.9800       106
    12.0000       112
    12.0200       104
    12.0400       120
    12.0600       130
    12.0800       124
    12.1000       128
    12.1200       126
    12.1400       120
    12.1600       146
    12.1800       134
    12.2000       134
    12.2200       198
    12.2400       152
    12.2600       194
    12.2800       184
    12.3000       202
    12.3200       228
    12.3400       204
    12.3600       246
    12.3800       236
    12.4000       278
    12.4200       266
    12.4400       264
    12.4600       290
    12.4800       244
    12.5000       236
    12.5200       206
    12.5400       186
    12.5600       176
    12.5800       190
    12.6000       176
    12.6200       152
    12.6400       142
    12.6600       148
    12.6800       132
    12.7000       136
    12.7200       108
    12.7400       118
    12.7600       104
    12.7800        98
    12.8000       106
    12.8200        94
    12.8400        94
    12.8600       112
    12.8800        92
    12.9000        82
    12.9200        76
    12.9400       100
    12.9600        78
    12.9800        86
    13.0000        90
    13.0200        78
    13.0400        72
    13.0600        80
    13.0800        74
    13.1000        66
    13.1200        72
    13.1400        82
    13.1600        62
    13.1800        94
    13.2000        82
    13.2200        86
    13.2400        76
    13.2600        70
    13.2800        90
    13.3000        62
    13.3200        78
    13.3400        72
    13.3600        90
    13.3800        72
    13.4000        80
    13.4200        78
    13.4400        74
    13.4600        90
    13.4800        74
    13.5000        70
    13.5200        68
    13.5400        72
    13.5600        82
    13.5800        66
    13.6000        66
    13.6200        78
    13.6400        62
    13.6600        58
    13.6800        66
    13.7000        58
    13.7200        78
    13.7400        80
    13.7600        66
    13.7800        64
    13.8000        50
    13.8200        72
    13.8400        64
    13.8600        74
    13.8800        64
    13.9000        86
    13.9200        64
    13.9400        70
    13.9600        66
    13.9800        62
    14.0000        48
    14.0200        70
    14.0400        82
    14.0600        68
    14.0800        62
    14.1000        60
    14.1200        76
    14.1400        68
    14.1600        66
    14.1800        70
    14.2000        50
    14.2200        56
    14.2400        56
    14.2600        72
    14.2800        58
    14.3000        70
    14.3200        48
    14.3400        76
    14.3600        64
    14.3800        76
    14.4000        46
    14.4200        66
    14.4400        62
    14.4600        72
    14.4800        74
    14.5000        66
    14.5200        62
    14.5400        64
    14.5600        54
    14.5800        62
    14.6000        88
    14.6200        54
    14.6400        58
    14.6600        64
    14.6800        54
    14.7000        60
    14.7200        70
    14.7400        78
    14.7600        70
    14.7800        60
    14.8000        54
    14.8200        56
    14.8400        54
    14.8600        62
    14.8800        86
    14.9000        66
    14.9200        62
    14.9400        54
    14.9600        54
    14.9800        58
    15.0000        64
    15.0200        52
    15.0400        74
    15.0600        50
    15.0800        62
    15.1000        72
    15.1200        70
    15.1400        66
    15.1600        62
    15.1800        54
    15.2000        62
    15.2200        64
    15.2400        60
    15.2600        42
    15.2800        78
    15.3000        70
    15.3200        54
    15.3400        60
    15.3600        56
    15.3800        62
    15.4000        76
    15.4200        46
    15.4400        90
    15.4600        68
    15.4800        76
    15.5000        62
    15.5200        54
    15.5400        60
    15.5600        62
    15.5800        60
    15.6000        56
    15.6200        66
    15.6400        58
    15.6600        52
    15.6800        74
    15.7000        70
    15.7200        74
    15.7400        46
    15.7600        54
    15.7800        60
    15.8000        62
    15.8200        66
    15.8400        60
    15.8600        52
    15.8800        76
    15.9000        64
    15.9200        46
    15.9400        64
    15.9600        66
    15.9800        50
    16.0000        58
    16.0200        66
    16.0400        68
    16.0600        64
    16.0800        58
    16.1000        64
    16.1200        54
    16.1400        54
    16.1600        52
    16.1800        42
    16.2000        72
    16.2200        60
    16.2400        50
    16.2600        54
    16.2800        66
    16.3000        54
    16.3200        56
    16.3400        64
    16.3600        52
    16.3800        50
    16.4000        66
    16.4200        64
    16.4400        66
    16.4600        48
    16.4800        54
    16.5000        72
    16.5200        54
    16.5400        56
    16.5600        60
    16.5800        52
    16.6000        58
    16.6200        54
    16.6400        72
    16.6600        66
    16.6800        58
    16.7000        60
    16.7200        52
    16.7400        50
    16.7600        58
    16.7800        56
    16.8000        70
    16.8200        54
    16.8400        54
    16.8600        64
    16.8800        52
    16.9000        76
    16.9200        56
    16.9400        54
    16.9600        66
    16.9800        54
    17.0000        56
    17.0200        68
    17.0400        66
    17.0600        60
    17.0800        66
    17.1000        68
    17.1200        60
    17.1400        40
    17.1600        64
    17.1800        52
    17.2000        74
    17.2200        58
    17.2400        40
    17.2600        60
    17.2800        56
    17.3000        60
    17.3200        66
    17.3400        64
    17.3600        62
    17.3800        54
    17.4000        70
    17.4200        58
    17.4400        50
    17.4600        58
    17.4800        76
    17.5000        56
    17.5200        62
    17.5400        54
    17.5600        50
    17.5800        62
    17.6000        82
    17.6200        64
    17.6400        78
    17.6600        56
    17.6800        56
    17.7000        52
    17.7200        56
    17.7400        64
    17.7600        70
    17.7800        60
    17.8000        56
    17.8200        66
    17.8400        62
    17.8600        64
    17.8800        74
    17.9000        68
    17.9200        58
    17.9400        62
    17.9600        68
    17.9800        60
    18.0000        50
    18.0200        70
    18.0400        56
    18.0600        70
    18.0800        56
    18.1000        86
    18.1200        64
    18.1400        64
    18.1600        52
    18.1800        76
    18.2000        66
    18.2200        70
    18.2400        66
    18.2600        64
    18.2800        70
    18.3000        64
    18.3200        86
    18.3400        62
    18.3600        90
    18.3800        64
    18.4000        60
    18.4200        98
    18.4400        74
    18.4600        94
    18.4800        78
    18.5000        78
    18.5200        82
    18.5400       100
    18.5600        98
    18.5800        98
    18.6000        90
    18.6200       132
    18.6400       110
    18.6600       132
    18.6800       130
    18.7000       128
    18.7200       140
    18.7400       120
    18.7600       130
    18.7800       128
    18.8000       110
    18.8200       124
    18.8400       120
    18.8600       108
    18.8800        84
    18.9000       108
    18.9200        90
    18.9400        88
    18.9600        92
    18.9800        78
    19.0000        86
    19.0200        72
    19.0400        80
    19.0600        84
    19.0800        74
    19.1000        98
    19.1200        88
    19.1400        92
    19.1600        68
    19.1800        80
    19.2000       106
    19.2200        90
    19.2400       102
    19.2600       100
    19.2800        84
    19.3000        96
    19.3200        86
    19.3400        76
    19.3600        92
    19.3800       102
    19.4000        90
    19.4200        70
    19.4400        84
    19.4600        80
    19.4800        86
    19.5000        82
    19.5200        78
    19.5400        94
    19.5600        78
    19.5800        78
    19.6000        80
    19.6200        72
    19.6400        84
    19.6600        82
    19.6800        92
    19.7000        96
    19.7200        76
    19.7400        78
    19.7600        88
    19.7800        74
    19.8000        84
    19.8200        88
    19.8400        58
    19.8600        76
    19.8800        70
    19.9000        74
    19.9200        94
    19.9400        68
    19.9600        62
    19.9800        76
    20.0000        52
    20.0200        72
    20.0400        70
    20.0600        88
    20.0800        54
    20.1000        72
    20.1200        76
    20.1400        74
    20.1600        70
    20.1800        62
    20.2000        62
    20.2200        60
    20.2400        82
    20.2600        58
    20.2800        78
    20.3000        40
    20.3200        80
    20.3400        56
    20.3600        72
    20.3800        60
    20.4000        62
    20.4200        60
    20.4400        58
    20.4600        66
    20.4800        66
    20.5000        54
    20.5200        74
    20.5400        62
    20.5600        60
    20.5800        68
    20.6000        50
    20.6200        70
    20.6400        70
    20.6600        74
    20.6800        54
    20.7000        64
    20.7200        72
    20.7400        58
    20.7600        74
    20.7800        70
    20.8000        56
    20.8200        62
    20.8400        64
    20.8600        70
    20.8800        74
    20.9000        64
    20.9200        56
    20.9400        72
    20.9600        56
    20.9800        56
    21.0000        60
    21.0200        66
    21.0400        64
    21.0600        62
    21.0800        64
    21.1000        72
    21.1200        58
    21.1400        52
    21.1600        84
    21.1800        54
    21.2000        44
    21.2200        66
    21.2400        58
    21.2600        58
    21.2800        58
    21.3000        60
    21.3200        70
    21.3400        70
    21.3600        64
    21.3800        60
    21.4000        46
    21.4200        54
    21.4400        42
    21.4600        48
    21.4800        60
    21.5000        72
    21.5200        62
    21.5400        44
    21.5600        70
    21.5800        56
    21.6000        64
    21.6200        58
    21.6400        66
    21.6600        72
    21.6800        66
    21.7000        72
    21.7200        60
    21.7400        56
    21.7600        60
    21.7800        64
    21.8000        58
    21.8200        50
    21.8400        56
    21.8600        56
    21.8800        46
    21.9000        60
    21.9200        56
    21.9400        60
    21.9600        58
    21.9800        64
    22.0000        52
    22.0200        60
    22.0400        60
    22.0600        54
    22.0800        50
    22.1000        52
    22.1200        56
    22.1400        58
    22.1600        54
    22.1800        54
    22.2000        46
    22.2200        70
    22.2400        56
    22.2600        44
    22.2800        68
    22.3000        64
    22.3200        66
    22.3400        56
    22.3600        54
    22.3800        42
    22.4000        50
    22.4200        54
    22.4400        64
    22.4600        70
    22.4800        62
    22.5000        50
    22.5200        50
    22.5400        58
    22.5600        54
    22.5800        52
    22.6000        56
    22.6200        50
    22.6400        50
    22.6600        54
    22.6800        50
    22.7000        52
    22.7200        58
    22.7400        42
    22.7600        48
    22.7800        54
    22.8000        72
    22.8200        48
    22.8400        68
    22.8600        50
    22.8800        56
    22.9000        64
    22.9200        58
    22.9400        54
    22.9600        56
    22.9800        54
    23.0000        56
    23.0200        52
    23.0400        46
    23.0600        58
    23.0800        50
    23.1000        62
    23.1200        60
    23.1400        42
    23.1600        48
    23.1800        46
    23.2000        46
    23.2200        68
    23.2400        62
    23.2600        60
    23.2800        56
    23.3000        60
    23.3200        56
    23.3400        56
    23.3600        60
    23.3800        52
    23.4000        54
    23.4200        56
    23.4400        62
    23.4600        56
    23.4800        62
    23.5000        48
    23.5200        50
    23.5400        52
    23.5600        52
    23.5800        64
    23.6000        42
    23.6200        54
    23.6400        60
    23.6600        42
    23.6800        58
    23.7000        58
    23.7200        48
    23.7400        48
    23.7600        66
    23.7800        54
    23.8000        60
    23.8200        62
    23.8400        58
    23.8600        62
    23.8800        52
    23.9000        70
    23.9200        66
    23.9400        52
    23.9600        74
    23.9800        52
    24.0000        56
    24.0200        66
    24.0400        72
    24.0600        66
    24.0800        72
    24.1000        68
    24.1200        62
    24.1400        70
    24.1600        56
    24.1800        74
    24.2000        66
    24.2200        60
    24.2400        78
    24.2600        82
    24.2800        66
    24.3000        64
    24.3200        60
    24.3400        58
    24.3600        64
    24.3800        68
    24.4000        74
    24.4200        56
    24.4400        64
    24.4600        72
    24.4800        76
    24.5000        72
    24.5200        64
    24.5400        80
    24.5600        74
    24.5800        80
    24.6000        86
    24.6200        72
    24.6400        76
    24.6600        80
    24.6800       112
    24.7000        84
    24.7200       104
    24.7400        96
    24.7600       100
    24.7800        98
    24.8000       114
    24.8200       118
    24.8400        98
    24.8600       144
    24.8800       128
    24.9000       156
    24.9200       172
    24.9400       152
    24.9600       180
    24.9800       212
    25.0000       224
    25.0200       224
    25.0400       258
    25.0600       258
    25.0800       240
    25.1000       242
    25.1200       246
    25.1400       228
    25.1600       186
    25.1800       218
    25.2000       184
    25.2200       164
    25.2400       152
    25.2600       132
    25.2800       120
    25.3000       120
    25.3200       116
    25.3400        90
    25.3600       102
    25.3800        80
    25.4000        86
    25.4200        80
    25.4400        74
    25.4600        80
    25.4800        82
    25.5000        62
    25.5200        52
    25.5400        70
    25.5600        74
    25.5800        58
    25.6000        66
    25.6200        52
    25.6400        68
    25.6600        70
    25.6800        72
    25.7000        66
    25.7200        64
    25.7400        62
    25.7600        64
    25.7800        70
    25.8000        74
    25.8200        68
    25.8400        48
    25.8600        72
    25.8800        64
    25.9000        50
    25.9200        66
    25.9400        76
    25.9600        62
    25.9800        66
    26.0000        76
    26.0200        58
    26.0400        62
    26.0600        66
    26.0800        66
    26.1000        62
    26.1200        42
    26.1400        54
    26.1600        50
    26.1800        48
    26.2000        54
    26.2200        54
    26.2400        62
    26.2600        60
    26.2800        62
    26.3000        54
    26.3200        56
    26.3400        60
    26.3600        42
    26.3800        66
    26.4000        52
    26.4200        46
    26.4400        62
    26.4600        62
    26.4800        76
    26.5000        62
    26.5200        50
    26.5400        64
    26.5600        70
    26.5800        74
    26.6000        60
    26.6200        58
    26.6400        54
    26.6600        60
    26.6800        60
    26.7000        56
    26.7200        52
    26.7400        56
    26.7600        64
    26.7800        72
    26.8000        56
    26.8200        54
    26.8400        68
    26.8600        52
    26.8800        54
    26.9000        50
    26.9200        54
    26.9400        60
    26.9600        50
    26.9800        50
    27.0000        82
    27.0200        46
    27.0400        52
    27.0600        44
    27.0800        44
    27.1000        54
    27.1200        60
    27.1400        44
    27.1600        56
    27.1800        60
    27.2000        58
    27.2200        56
    27.2400        42
    27.2600        44
    27.2800        62
    27.3000        60
    27.3200        42
    27.3400        40
    27.3600        44
    27.3800        32
    27.4000        46
    27.4200        48
    27.4400        46
    27.4600        56
    27.4800        54
    27.5000        60
    27.5200        38
    27.5400        34
    27.5600        34
    27.5800        54
    27.6000        54
    27.6200        44
    27.6400        46
    27.6600        44
    27.6800        36
    27.7000        44
    27.7200        46
    27.7400        42
    27.7600        48
    27.7800        48
    27.8000        44
    27.8200        54
    27.8400        42
    27.8600        40
    27.8800        46
    27.9000        44
    27.9200        46
    27.9400        42
    27.9600        50
    27.9800        42
    28.0000        40
    28.0200        42
    28.0400        38
    28.0600        40
    28.0800        40
    28.1000        40
    28.1200        40
    28.1400        40
    28.1600        46
    28.1800        44
    28.2000        48
    28.2200        44
    28.2400        36
    28.2600        40
    28.2800        48
    28.3000        42
    28.3200        44
    28.3400        40
    28.3600        38
    28.3800        40
    28.4000        42
    28.4200        44
    28.4400        54
    28.4600        26
    28.4800        48
    28.5000        42
    28.5200        38
    28.5400        42
    28.5600        34
    28.5800        42
    28.6000        42
    28.6200        50
    28.6400        42
    28.6600        26
    28.6800        42
    28.7000        36
    28.7200        54
    28.7400        30
    28.7600        30
    28.7800        40
    28.8000        46
    28.8200        42
    28.8400        30
    28.8600        36
    28.8800        40
    28.9000        42
    28.9200        34
    28.9400        34
    28.9600        48
    28.9800        32
    29.0000        48
    29.0200        50
    29.0400        38
    29.0600        42
    29.0800        26
    29.1000        30
    29.1200        36
    29.1400        26
    29.1600        40
    29.1800        52
    29.2000        30
    29.2200        36
    29.2400        44
    29.2600        36
    29.2800        46
    29.3000        42
    29.3200        30
    29.3400        48
    29.3600        40
    29.3800        36
    29.4000        38
    29.4200        32
    29.4400        44
    29.4600        54
    29.4800        34
    29.5000        44
    29.5200        36
    29.5400        50
    29.5600        44
    29.5800        38
    29.6000        44
    29.6200        40
    29.6400        32
    29.6600        38
    29.6800        42
    29.7000        28
    29.7200        38
    29.7400        38
    29.7600        42
    29.7800        36
    29.8000        50
    29.8200        40
    29.8400        60
    29.8600        36
    29.8800        36
    29.9000        44
    29.9200        36
    29.9400        44
    29.9600        42
    29.9800        42
    30.0000        42
    30.0200        44
    30.0400        42
    30.0600        50
    30.0800        44
    30.1000        40
    30.1200        54
    30.1400        40
    30.1600        36
    30.1800        36
    30.2000        44
    30.2200        34
    30.2400        54
    30.2600        34
    30.2800        58
    30.3000        42
    30.3200        34
    30.3400        38
    30.3600        42
    30.3800        36
    30.4000        38
    30.4200        34
    30.4400        38
    30.4600        48
    30.4800        54
    30.5000        54
    30.5200        46
    30.5400        48
    30.5600        50
    30.5800        50
    30.6000        42
    30.6200        48
    30.6400        34
    30.6600        32
    30.6800        44
    30.7000        46
    30.7200        48
    30.7400        30
    30.7600        50
    30.7800        48
    30.8000        48
    30.8200        46
    30.8400        50
    30.8600        48
    30.8800        52
    30.9000        54
    30.9200        56
    30.9400        48
    30.9600        50
    30.9800        66
    31.0000        46
    31.0200        58
    31.0400        46
    31.0600        50
    31.0800        50
    31.1000        50
    31.1200        50
    31.1400        58
    31.1600        48
    31.1800        64
    31.2000        70
    31.2200        50
    31.2400        52
    31.2600        50
    31.2800        58
    31.3000        66
    31.3200        50
    31.3400        66
    31.3600        64
    31.3800        80
    31.4000        66
    31.4200        80
    31.4400        70
    31.4600        76
    31.4800        90
    31.5000        86
    31.5200        90
    31.5400        80
    31.5600        92
    31.5800        74
    31.6000        82
    31.6200        86
    31.6400        68
    31.6600        72
    31.6800        54
    31.7000        52
    31.7200        62
    31.7400        50
    31.7600        46
    31.7800        58
    31.8000        38
    31.8200        58
    31.8400        50
    31.8600        50
    31.8800        36
    31.9000        46
    31.9200        24
    31.9400        38
    31.9600        32
    31.9800        44
    32.0000        42
    32.0200        40
    32.0400        34
    32.0600        40
    32.0800        40
    32.1000        30
    32.1200        40
    32.1400        38
    32.1600        46
    32.1800        24
    32.2000        48
    32.2200        38
    32.2400        36
    32.2600        42
    32.2800        36
    32.3000        38
    32.3200        32
    32.3400        48
    32.3600        34
    32.3800        46
    32.4000        40
    32.4200        48
    32.4400        30
    32.4600        46
    32.4800        32
    32.5000        40
    32.5200        42
    32.5400        28
    32.5600        30
    32.5800        30
    32.6000        38
    32.6200        32
    32.6400        26
    32.6600        48
    32.6800        44
    32.7000        48
    32.7200        46
    32.7400        40
    32.7600        42
    32.7800        22
    32.8000        36
    32.8200        38
    32.8400        34
    32.8600        46
    32.8800        38
    32.9000        28
    32.9200        36
    32.9400        32
    32.9600        28
    32.9800        34
    33.0000        36
    33.0200        36
    33.0400        44
    33.0600        36
    33.0800        42
    33.1000        52
    33.1200        40
    33.1400        46
    33.1600        40
    33.1800        38
    33.2000        36
    33.2200        40
    33.2400        32
    33.2600        44
    33.2800        34
    33.3000        36
    33.3200        28
    33.3400        66
    33.3600        38
    33.3800        42
    33.4000        48
    33.4200        44
    33.4400        44
    33.4600        32
    33.4800        40
    33.5000        50
    33.5200        70
    33.5400        58
    33.5600        56
    33.5800        60
    33.6000        48
    33.6200        50
    33.6400        66
    33.6600        62
    33.6800        48
    33.7000        46
    33.7200        44
    33.7400        42
    33.7600        50
    33.7800        48
    33.8000        44
    33.8200        42
    33.8400        50
    33.8600        42
    33.8800        52
    33.9000        34
    33.9200        42
    33.9400        46
    33.9600        52
    33.9800        48
    34.0000        30
    34.0200        48
    34.0400        44
    34.0600        40
    34.0800        50
    34.1000        42
    34.1200        46
    34.1400        62
    34.1600        48
    34.1800        42
    34.2000        44
    34.2200        44
    34.2400        64
    34.2600        68
    34.2800        42
    34.3000        54
    34.3200        64
    34.3400        60
    34.3600        72
    34.3800        74
    34.4000        96
    34.4200        82
    34.4400        96
    34.4600       122
    34.4800       140
    34.5000       128
    34.5200       130
    34.5400       146
    34.5600       122
    34.5800       156
    34.6000       148
    34.6200       136
    34.6400       134
    34.6600        88
    34.6800       106
    34.7000       104
    34.7200        92
    34.7400       108
    34.7600        92
    34.7800        82
    34.8000        82
    34.8200       104
    34.8400        86
    34.8600        84
    34.8800        82
    34.9000        74
    34.9200       106
    34.9400        86
    34.9600       100
    34.9800       112
    35.0000        90
    35.0200        94
    35.0400       114
    35.0600        98
    35.0800       110
    35.1000       120
    35.1200       116
    35.1400       120
    35.1600       148
    35.1800       108
    35.2000       118
    35.2200       112
    35.2400        92
    35.2600       100
    35.2800       104
    35.3000        72
    35.3200        58
    35.3400        74
    35.3600        56
    35.3800        62
    35.4000        54
    35.4200        60
    35.4400        58
    35.4600        38
    35.4800        56
    35.5000        54
    35.5200        50
    35.5400        50
    35.5600        54
    35.5800        48
    35.6000        46
    35.6200        38
    35.6400        40
    35.6600        58
    35.6800        52
    35.7000        50
    35.7200        44
    35.7400        42
    35.7600        52
    35.7800        46
    35.8000        50
    35.8200        50
    35.8400        54
    35.8600        48
    35.8800        46
    35.9000        34
    35.9200        42
    35.9400        52
    35.9600        46
    35.9800        38
    36.0000        60
    36.0200        46
    36.0400        50
    36.0600        32
    36.0800        42
    36.1000        36
    36.1200        52
    36.1400        54
    36.1600        42
    36.1800        42
    36.2000        56
    36.2200        34
    36.2400        52
    36.2600        42
    36.2800        50
    36.3000        60
    36.3200        38
    36.3400        44
    36.3600        42
    36.3800        64
    36.4000        52
    36.4200        60
    36.4400        50
    36.4600        72
    36.4800        80
    36.5000        76
    36.5200        74
    36.5400        94
    36.5600        70
    36.5800       108
    36.6000        96
    36.6200       102
    36.6400       136
    36.6600       120
    36.6800       128
    36.7000       102
    36.7200       124
    36.7400       106
    36.7600       122
    36.7800       108
    36.8000       110
    36.8200        98
    36.8400       110
    36.8600        82
    36.8800        76
    36.9000        64
    36.9200        74
    36.9400        88
    36.9600        58
    36.9800        64
    37.0000        56
    37.0200        54
    37.0400        50
    37.0600        80
    37.0800        56
    37.1000        60
    37.1200        56
    37.1400        42
    37.1600        62
    37.1800        62
    37.2000        50
    37.2200        62
    37.2400        48
    37.2600        64
    37.2800        42
    37.3000        60
    37.3200        54
    37.3400        52
    37.3600        68
    37.3800        58
    37.4000        64
    37.4200        66
    37.4400        62
    37.4600        66
    37.4800        86
    37.5000        72
    37.5200        74
    37.5400        76
    37.5600        84
    37.5800       100
    37.6000        96
    37.6200        76
    37.6400        82
    37.6600        90
    37.6800       102
    37.7000        80
    37.7200        76
    37.7400        82
    37.7600        70
    37.7800        84
    37.8000        70
    37.8200        54
    37.8400        68
    37.8600        58
    37.8800        52
    37.9000        50
    37.9200        52
    37.9400        56
    37.9600        46
    37.9800        46
    38.0000        42
    38.0200        44
    38.0400        58
    38.0600        42
    38.0800        40
    38.1000        40
    38.1200        32
    38.1400        46
    38.1600        46
    38.1800        50
    38.2000        36
    38.2200        32
    38.2400        32
    38.2600        34
    38.2800        44
    38.3000        26
    38.3200        28
    38.3400        44
    38.3600        42
    38.3800        38
    38.4000        42
    38.4200        46
    38.4400        46
    38.4600        40
    38.4800        48
    38.5000        36
    38.5200        38
    38.5400        34
    38.5600        32
    38.5800        30
    38.6000        32
    38.6200        36
    38.6400        42
    38.6600        54
    38.6800        38
    38.7000        44
    38.7200        24
    38.7400        48
    38.7600        38
    38.7800        34
    38.8000        40
    38.8200        34
    38.8400        42
    38.8600        44
    38.8800        40
    38.9000        42
    38.9200        42
    38.9400        50
    38.9600        42
    38.9800        40
    39.0000        52
    39.0200        36
    39.0400        34
    39.0600        54
    39.0800        42
    39.1000        32
    39.1200        36
    39.1400        42
    39.1600        48
    39.1800        44
    39.2000        42
    39.2200        42
    39.2400        40
    39.2600        46
    39.2800        44
    39.3000        44
    39.3200        46
    39.3400        40
    39.3600        38
    39.3800        38
    39.4000        62
    39.4200        44
    39.4400        58
    39.4600        46
    39.4800        40
    39.5000        42
    39.5200        40
    39.5400        54
    39.5600        54
    39.5800        56
    39.6000        42
    39.6200        62
    39.6400        54
    39.6600        58
    39.6800        68
    39.7000        70
    39.7200        60
    39.7400        86
    39.7600        78
    39.7800        80
    39.8000        96
    39.8200        72
    39.8400        98
    39.8600        84
    39.8800        82
    39.9000        76
    39.9200        84
    39.9400        72
    39.9600        72
    39.9800        76
    40.0000        66
    40.0200        80
    40.0400        58
    40.0600        64
    40.0800        58
    40.1000        54
    40.1200        76
    40.1400        54
    40.1600        46
    40.1800        64
    40.2000        58
    40.2200        58
    40.2400        50
    40.2600        52
    40.2800        52
    40.3000        40
    40.3200        34
    40.3400        46
    40.3600        36
    40.3800        44
    40.4000        32
    40.4200        38
    40.4400        42
    40.4600        36
    40.4800        50
    40.5000        40
    40.5200        42
    40.5400        28
    40.5600        42
    40.5800        30
    40.6000        34
    40.6200        32
    40.6400        42
    40.6600        38
    40.6800        48
    40.7000        32
    40.7200        34
    40.7400        50
    40.7600        24
    40.7800        30
    40.8000        28
    40.8200        34
    40.8400        32
    40.8600        34
    40.8800        34
    40.9000        40
    40.9200        34
    40.9400        34
    40.9600        46
    40.9800        32
    41.0000        46
    41.0200        22
    41.0400        38
    41.0600        36
    41.0800        28
    41.1000        28
    41.1200        26
    41.1400        30
    41.1600        38
    41.1800        38
    41.2000        40
    41.2200        34
    41.2400        30
    41.2600        36
    41.2800        24
    41.3000        38
    41.3200        22
    41.3400        34
    41.3600        26
    41.3800        40
    41.4000        42
    41.4200        26
    41.4400        34
    41.4600        44
    41.4800        24
    41.5000        20
    41.5200        36
    41.5400        36
    41.5600        30
    41.5800        34
    41.6000        42
    41.6200        40
    41.6400        44
    41.6600        40
    41.6800        30
    41.7000        32
    41.7200        30
    41.7400        34
    41.7600        30
    41.7800        32
    41.8000        30
    41.8200        20
    41.8400        22
    41.8600        40
    41.8800        32
    41.9000        40
    41.9200        40
    41.9400        34
    41.9600        38
    41.9800        34
    42.0000        32
    42.0200        40
    42.0400        32
    42.0600        46
    42.0800        40
    42.1000        38
    42.1200        34
    42.1400        34
    42.1600        36
    42.1800        32
    42.2000        42
    42.2200        34
    42.2400        38
    42.2600        36
    42.2800        36
    42.3000        26
    42.3200        22
    42.3400        28
    42.3600        32
    42.3800        46
    42.4000        28
    42.4200        40
    42.4400        26
    42.4600        38
    42.4800        24
    42.5000        36
    42.5200        44
    42.5400        26
    42.5600        40
    42.5800        22
    42.6000        26
    42.6200        40
    42.6400        28
    42.6600        32
    42.6800        26
    42.7000        24
    42.7200        38
    42.7400        30
    42.7600        34
    42.7800        38
    42.8000        26
    42.8200        36
    42.8400        26
    42.8600        44
    42.8800        20
    42.9000        38
    42.9200        36
    42.9400        24
    42.9600        36
    42.9800        36
    43.0000        20
    43.0200        32
    43.0400        28
    43.0600        34
    43.0800        32
    43.1000        24
    43.1200        30
    43.1400        54
    43.1600        28
    43.1800        24
    43.2000        34
    43.2200        38
    43.2400        28
    43.2600        32
    43.2800        32
    43.3000        24
    43.3200        38
    43.3400        26
    43.3600        30
    43.3800        32
    43.4000        42
    43.4200        30
    43.4400        28
    43.4600        30
    43.4800        26
    43.5000        38
    43.5200        40
    43.5400        26
    43.5600        34
    43.5800        44
    43.6000        44
    43.6200        42
    43.6400        24
    43.6600        42
    43.6800        38
    43.7000        42
    43.7200        26
    43.7400        46
    43.7600        38
    43.7800        38
    43.8000        30
    43.8200        38
    43.8400        36
    43.8600        28
    43.8800        32
    43.9000        44
    43.9200        38
    43.9400        38
    43.9600        30
    43.9800        34
    44.0000        34
    44.0200        36
    44.0400        34
    44.0600        42
    44.0800        44
    44.1000        46
    44.1200        42
    44.1400        30
    44.1600        42
    44.1800        38
    44.2000        46
    44.2200        32
    44.2400        32
    44.2600        42
    44.2800        46
    44.3000        44
    44.3200        38
    44.3400        50
    44.3600        38
    44.3800        30
    44.4000        38
    44.4200        32
    44.4400        44
    44.4600        52
    44.4800        40
    44.5000        40
    44.5200        44
    44.5400        46
    44.5600        28
    44.5800        36
    44.6000        52
    44.6200        58
    44.6400        50
    44.6600        40
    44.6800        66
    44.7000        50
    44.7200        68
    44.7400        58
    44.7600        62
    44.7800        58
    44.8000        74
    44.8200        80
    44.8400        78
    44.8600        78
    44.8800        70
    44.9000        56
    44.9200        78
    44.9400        98
    44.9600        76
    44.9800        86
    45.0000        70
    45.0200        86
    45.0400        92
    45.0600       106
    45.0800       106
    45.1000       108
    45.1200       102
    45.1400       120
    45.1600       104
    45.1800        98
    45.2000       108
    45.2200       126
    45.2400       106
    45.2600        98
    45.2800        98
    45.3000        92
    45.3200       110
    45.3400        92
    45.3600        84
    45.3800        74
    45.4000        82
    45.4200        90
    45.4400        88
    45.4600        62
    45.4800        68
    45.5000        62
    45.5200        52
    45.5400        50
    45.5600        54
    45.5800        64
    45.6000        50
    45.6200        54
    45.6400        40
    45.6600        42
    45.6800        54
    45.7000        46
    45.7200        38
    45.7400        28
    45.7600        46
    45.7800        36
    45.8000        36
    45.8200        30
    45.8400        36
    45.8600        42
    45.8800        44
    45.9000        36
    45.9200        28
    45.9400        48
    45.9600        42
    45.9800        36
    46.0000        38
    46.0200        26
    46.0400        38
    46.0600        40
    46.0800        36
    46.1000        30
    46.1200        28
    46.1400        44
    46.1600        34
    46.1800        26
    46.2000        42
    46.2200        42
    46.2400        28
    46.2600        28
    46.2800        26
    46.3000        26
    46.3200        26
    46.3400        36
    46.3600        28
    46.3800        38
    46.4000        42
    46.4200        30
    46.4400        16
    46.4600        32
    46.4800        40
    46.5000        30
    46.5200        34
    46.5400        28
    46.5600        38
    46.5800        34
    46.6000        36
    46.6200        32
    46.6400        20
    46.6600        38
    46.6800        22
    46.7000        22
    46.7200        44
    46.7400        34
    46.7600        40
    46.7800        42
    46.8000        20
    46.8200        40
    46.8400        30
    46.8600        32
    46.8800        40
    46.9000        36
    46.9200        26
    46.9400        30
    46.9600        36
    46.9800        26
    47.0000        26
    47.0200        22
    47.0400        42
    47.0600        26
    47.0800        38
    47.1000        26
    47.1200        28
    47.1400        32
    47.1600        30
    47.1800        36
    47.2000        30
    47.2200        26
    47.2400        28
    47.2600        30
    47.2800        44
    47.3000        32
    47.3200        36
    47.3400        34
    47.3600        36
    47.3800        32
    47.4000        22
    47.4200        20
    47.4400        22
    47.4600        34
    47.4800        20
    47.5000        40
    47.5200        36
    47.5400        30
    47.5600        50
    47.5800        28
    47.6000        36
    47.6200        30
    47.6400        20
    47.6600        26
    47.6800        40
    47.7000        26
    47.7200        24
    47.7400        32
    47.7600        42
    47.7800        42
    47.8000        24
    47.8200        26
    47.8400        24
    47.8600        32
    47.8800        44
    47.9000        36
    47.9200        50
    47.9400        40
    47.9600        44
    47.9800        30
    48.0000        44
    48.0200        38
    48.0400        42
    48.0600        50
    48.0800        32
    48.1000        50
    48.1200        46
    48.1400        46
    48.1600        48
    48.1800        42
    48.2000        46
    48.2200        54
    48.2400        70
    48.2600        56
    48.2800        64
    48.3000        58
    48.3200        58
    48.3400        54
    48.3600        54
    48.3800        60
    48.4000        70
    48.4200        36
    48.4400        54
    48.4600        58
    48.4800        42
    48.5000        50
    48.5200        40
    48.5400        52
    48.5600        48
    48.5800        40
    48.6000        38
    48.6200        46
    48.6400        48
    48.6600        40
    48.6800        24
    48.7000        34
    48.7200        40
    48.7400        32
    48.7600        44
    48.7800        38
    48.8000        38
    48.8200        34
    48.8400        32
    48.8600        28
    48.8800        42
    48.9000        34
    48.9200        42
    48.9400        26
    48.9600        38
    48.9800        36
    49.0000        40
    49.0200        50
    49.0400        36
    49.0600        36
    49.0800        42
    49.1000        36
    49.1200        26
    49.1400        38
    49.1600        28
    49.1800        42
    49.2000        46
    49.2200        24
    49.2400        34
    49.2600        26
    49.2800        38
    49.3000        50
    49.3200        36
    49.3400        32
    49.3600        32
    49.3800        26
    49.4000        32
    49.4200        36
    49.4400        22
    49.4600        28
    49.4800        50
    49.5000        32
    49.5200        38
    49.5400        34
    49.5600        34
    49.5800        30
    49.6000        34
    49.6200        28
    49.6400        32
    49.6600        32
    49.6800        34
    49.7000        36
    49.7200        36
    49.7400        34
    49.7600        40
    49.7800        36
    49.8000        42
    49.8200        34
    49.8400        42
    49.8600        40
    49.8800        46
    49.9000        46
    49.9200        40
    49.9400        42
    49.9600        48
    49.9800        38
    50.0000        44
    50.0200        52
    50.0400        34
    50.0600        56
    50.0800        46
    50.1000        40
    50.1200        24
    50.1400        40
    50.1600        30
    50.1800        40
    50.2000        34
    50.2200        52
    50.2400        28
    50.2600        26
    50.2800        40
    50.3000        38
    50.3200        34
    50.3400        38
    50.3600        40
    50.3800        36
    50.4000        34
    50.4200        36
    50.4400        42
    50.4600        42
    50.4800        40
    50.5000        38
    50.5200        28
    50.5400        38
    50.5600        42
    50.5800        32
    50.6000        36
    50.6200        46
    50.6400        34
    50.6600        38
    50.6800        34
    50.7000        36
    50.7200        20
    50.7400        38
    50.7600        36
    50.7800        22
    50.8000        34
    50.8200        46
    50.8400        44
    50.8600        22
    50.8800        32
    50.9000        24
    50.9200        34
    50.9400        32
    50.9600        30
    50.9800        22
    51.0000        44
    51.0200        34
    51.0400        26
    51.0600        34
    51.0800        32
    51.1000        38
    51.1200        16
    51.1400        36
    51.1600        26
    51.1800        24
    51.2000        28
    51.2200        32
    51.2400        26
    51.2600        24
    51.2800        26
    51.3000        30
    51.3200        20
    51.3400        24
    51.3600        26
    51.3800        26
    51.4000        34
    51.4200        24
    51.4400        34
    51.4600        42
    51.4800        42
    51.5000        22
    51.5200        34
    51.5400        26
    51.5600        20
    51.5800        30
    51.6000        26
    51.6200        26
    51.6400        28
    51.6600        32
    51.6800        38
    51.7000        32
    51.7200        32
    51.7400        30
    51.7600        26
    51.7800        34
    51.8000        32
    51.8200        34
    51.8400        22
    51.8600        38
    51.8800        26
    51.9000        30
    51.9200        38
    51.9400        28
    51.9600        26
    51.9800        24
    52.0000        34
    52.0200        34
    52.0400        28
    52.0600        36
    52.0800        30
    52.1000        36
    52.1200        32
    52.1400        20
    52.1600        26
    52.1800        32
    52.2000        28
    52.2200        34
    52.2400        26
    52.2600        36
    52.2800        44
    52.3000        38
    52.3200        24
    52.3400        28
    52.3600        46
    52.3800        36
    52.4000        40
    52.4200        30
    52.4400        40
    52.4600        34
    52.4800        30
    52.5000        34
    52.5200        32
    52.5400        52
    52.5600        34
    52.5800        36
    52.6000        28
    52.6200        34
    52.6400        32
    52.6600        30
    52.6800        36
    52.7000        58
    52.7200        40
    52.7400        38
    52.7600        26
    52.7800        36
    52.8000        28
    52.8200        30
    52.8400        46
    52.8600        28
    52.8800        34
    52.9000        48
    52.9200        32
    52.9400        36
    52.9600        44
    52.9800        36
    53.0000        38
    53.0200        50
    53.0400        48
    53.0600        20
    53.0800        40
    53.1000        36
    53.1200        32
    53.1400        36
    53.1600        28
    53.1800        24
    53.2000        48
    53.2200        38
    53.2400        42
    53.2600        42
    53.2800        42
    53.3000        36
    53.3200        38
    53.3400        48
    53.3600        36
    53.3800        40
    53.4000        46
    53.4200        38
    53.4400        36
    53.4600        54
    53.4800        44
    53.5000        46
    53.5200        56
    53.5400        30
    53.5600        40
    53.5800        42
    53.6000        44
    53.6200        46
    53.6400        48
    53.6600        34
    53.6800        42
    53.7000        30
    53.7200        38
    53.7400        38
    53.7600        48
    53.7800        36
    53.8000        34
    53.8200        30
    53.8400        42
    53.8600        48
    53.8800        34
    53.9000        40
    53.9200        40
    53.9400        34
    53.9600        34
    53.9800        28
    54.0000        38
    54.0200        40
    54.0400        36
    54.0600        32
    54.0800        34
    54.1000        46
    54.1200        40
    54.1400        42
    54.1600        34
    54.1800        48
    54.2000        48
    54.2200        38
    54.2400        52
    54.2600        28
    54.2800        36
    54.3000        34
    54.3200        36
    54.3400        36
    54.3600        36
    54.3800        40
    54.4000        52
    54.4200        28
    54.4400        28
    54.4600        26
    54.4800        30
    54.5000        32
    54.5200        34
    54.5400        32
    54.5600        46
    54.5800        34
    54.6000        38
    54.6200        34
    54.6400        40
    54.6600        32
    54.6800        28
    54.7000        36
    54.7200        34
    54.7400        40
    54.7600        44
    54.7800        36
    54.8000        46
    54.8200        36
    54.8400        44
    54.8600        40
    54.8800        54
    54.9000        38
    54.9200        28
    54.9400        28
    54.9600        34
    54.9800        32
    55.0000        32
    55.0200        32
    55.0400        42
    55.0600        42
    55.0800        38
    55.1000        40
    55.1200        40
    55.1400        48
    55.1600        42
    55.1800        36
    55.2000        42
    55.2200        44
    55.2400        54
    55.2600        48
    55.2800        46
    55.3000        34
    55.3200        52
    55.3400        46
    55.3600        38
    55.3800        34
    55.4000        38
    55.4200        48
    55.4400        44
    55.4600        44
    55.4800        40
    55.5000        42
    55.5200        40
    55.5400        38
    55.5600        48
    55.5800        40
    55.6000        42
    55.6200        28
    55.6400        30
    55.6600        54
    55.6800        26
    55.7000        42
    55.7200        42
    55.7400        38
    55.7600        36
    55.7800        34
    55.8000        46
    55.8200        32
    55.8400        34
    55.8600        34
    55.8800        36
    55.9000        38
    55.9200        34
    55.9400        32
    55.9600        40
    55.9800        36
    56.0000        38
    56.0200        34
    56.0400        34
    56.0600        48
    56.0800        38
    56.1000        24
    56.1200        28
    56.1400        34
    56.1600        38
    56.1800        30
    56.2000        28
    56.2200        24
    56.2400        38
    56.2600        42
    56.2800        40
    56.3000        38
    56.3200        34
    56.3400        38
    56.3600        30
    56.3800        32
    56.4000        30
    56.4200        30
    56.4400        28
    56.4600        36
    56.4800        36
    56.5000        32
    56.5200        28
    56.5400        36
    56.5600        40
    56.5800        40
    56.6000        34
    56.6200        30
    56.6400        40
    56.6600        30
    56.6800        44
    56.7000        26
    56.7200        32
    56.7400        30
    56.7600        36
    56.7800        38
    56.8000        38
    56.8200        46
    56.8400        26
    56.8600        44
    56.8800        24
    56.9000        30
    56.9200        38
    56.9400        24
    56.9600        28
    56.9800        36
    57.0000        28
    57.0200        28
    57.0400        34
    57.0600        26
    57.0800        36
    57.1000        32
    57.1200        36
    57.1400        36
    57.1600        36
    57.1800        30
    57.2000        24
    57.2200        28
    57.2400        30
    57.2600        36
    57.2800        26
    57.3000        34
    57.3200        30
    57.3400        38
    57.3600        32
    57.3800        30
    57.4000        34
    57.4200        32
    57.4400        38
    57.4600        26
    57.4800        34
    57.5000        34
    57.5200        34
    57.5400        30
    57.5600        24
    57.5800        28
    57.6000        30
    57.6200        34
    57.6400        30
    57.6600        26
    57.6800        36
    57.7000        30
    57.7200        44
    57.7400        42
    57.7600        32
    57.7800        30
    57.8000        36
    57.8200        46
    57.8400        28
    57.8600        30
    57.8800        30
    57.9000        32
    57.9200        36
    57.9400        14
    57.9600        30
    57.9800        36
    58.0000        44
    58.0200        32
    58.0400        40
    58.0600        30
    58.0800        50
    58.1000        44
    58.1200        24
    58.1400        38
    58.1600        44
    58.1800        36
    58.2000        44
    58.2200        52
    58.2400        30
    58.2600        50
    58.2800        40
    58.3000        48
    58.3200        46
    58.3400        40
    58.3600        40
    58.3800        34
    58.4000        34
    58.4200        50
    58.4400        42
    58.4600        60
    58.4800        46
    58.5000        48
    58.5200        44
    58.5400        44
    58.5600        42
    58.5800        46
    58.6000        58
    58.6200        56
    58.6400        60
    58.6600        46
    58.6800        44
    58.7000        58
    58.7200        62
    58.7400        72
    58.7600        54
    58.7800        68
    58.8000        76
    58.8200        70
    58.8400        74
    58.8600        60
    58.8800        80
    58.9000        76
    58.9200        78
    58.9400        76
    58.9600        80
    58.9800        70
    59.0000        88
    59.0200        60
    59.0400        74
    59.0600        74
    59.0800        68
    59.1000        78
    59.1200        54
    59.1400        60
    59.1600        68
    59.1800        60
    59.2000        64
    59.2200        64
    59.2400        46
    59.2600        46
    59.2800        48
    59.3000        58
    59.3200        36
    59.3400        48
    59.3600        42
    59.3800        58
    59.4000        42
    59.4200        64
    59.4400        46
    59.4600        36
    59.4800        46
    59.5000        50
    59.5200        62
    59.5400        32
    59.5600        52
    59.5800        42
    59.6000        58
    59.6200        58
    59.6400        54
    59.6600        56
    59.6800        56
    59.7000        70
    59.7200        80
    59.7400        86
    59.7600        88
    59.7800        98
    59.8000        98
    59.8200       106
    59.8400       102
    59.8600       130
    59.8800       108
    59.9000       122
    59.9200       130
    59.9400       134
    59.9600       134
    59.9800       120
    60.0000       126
    60.0200        84
    60.0400       118
    60.0600        86
    60.0800       104
    60.1000        72
    60.1200        78
    60.1400        74
    60.1600        86
    60.1800        62
    60.2000        52
    60.2200        62
    60.2400        66
    60.2600        44
    60.2800        54
    60.3000        48
    60.3200        58
    60.3400        40
    60.3600        52
    60.3800        48
    60.4000        54
    60.4200        34
    60.4400        38
    60.4600        38
    60.4800        38
    60.5000        50
    60.5200        32
    60.5400        46
    60.5600        34
    60.5800        36
    60.6000        38
    60.6200        36
    60.6400        54
    60.6600        38
    60.6800        42
    60.7000        40
    60.7200        38
    60.7400        30
    60.7600        40
    60.7800        36
    60.8000        36
    60.8200        44
    60.8400        42
    60.8600        32
    60.8800        46
    60.9000        40
    60.9200        38
    60.9400        36
    60.9600        32
    60.9800        48
    61.0000        44
    61.0200        32
    61.0400        30
    61.0600        36
    61.0800        46
    61.1000        46
    61.1200        40
    61.1400        50
    61.1600        46
    61.1800        60
    61.2000        58
    61.2200        40
    61.2400        54
    61.2600        40
    61.2800        58
    61.3000        52
    61.3200        68
    61.3400        62
    61.3600        56
    61.3800        62
    61.4000        56
    61.4200        54
    61.4400        74
    61.4600        58
    61.4800        54
    61.5000        68
    61.5200        70
    61.5400        58
    61.5600        70
    61.5800        60
    61.6000        70
    61.6200        56
    61.6400        52
    61.6600        48
    61.6800        60
    61.7000        54
    61.7200        50
    61.7400        52
    61.7600        48
    61.7800        42
    61.8000        38
    61.8200        56
    61.8400        46
    61.8600        42
    61.8800        48
    61.9000        34
    61.9200        32
    61.9400        36
    61.9600        32
    61.9800        36
    62.0000        44
    62.0200        28
    62.0400        46
    62.0600        30
    62.0800        32
    62.1000        38
    62.1200        24
    62.1400        36
    62.1600        32
    62.1800        38
    62.2000        22
    62.2200        42
    62.2400        38
    62.2600        34
    62.2800        30
    62.3000        38
    62.3200        22
    62.3400        30
    62.3600        32
    62.3800        28
    62.4000        34
    62.4200        46
    62.4400        34
    62.4600        38
    62.4800        16
    62.5000        28
    62.5200        22
    62.5400        46
    62.5600        36
    62.5800        26
    62.6000        24
    62.6200        34
    62.6400        24
    62.6600        34
    62.6800        32
    62.7000        36
    62.7200        26
    62.7400        20
    62.7600        28
    62.7800        28
    62.8000        22
    62.8200        40
    62.8400        24
    62.8600        36
    62.8800        28
    62.9000        32
    62.9200        36
    62.9400        26
    62.9600        34
    62.9800        30
    63.0000        40
    63.0200        28
    63.0400        30
    63.0600        30
    63.0800        22
    63.1000        24
    63.1200        42
    63.1400        32
    63.1600        28
    63.1800        40
    63.2000        40
    63.2200        32
    63.2400        44
    63.2600        36
    63.2800        36
    63.3000        26
    63.3200        30
    63.3400        36
    63.3600        36
    63.3800        24
    63.4000        22
    63.4200        26
    63.4400        32
    63.4600        20
    63.4800        28
    63.5000        40
    63.5200        30
    63.5400        26
    63.5600        32
    63.5800        38
    63.6000        30
    63.6200        38
    63.6400        38
    63.6600        36
    63.6800        40
    63.7000        26
    63.7200        38
    63.7400        30
    63.7600        34
    63.7800        26
    63.8000        34
    63.8200        34
    63.8400        20
    63.8600        26
    63.8800        32
    63.9000        36
    63.9200        36
    63.9400        40
    63.9600        26
    63.9800        42
    64.0000        26
    64.0200        22
    64.0400        42
    64.0600        26
    64.0800        32
    64.1000        28
    64.1200        34
    64.1400        24
    64.1600        24
    64.1800        24
    64.2000        32
    64.2200        22
    64.2400        28
    64.2600        26
    64.2800        22
    64.3000        36
    64.3200        28
    64.3400        24
    64.3600        30
    64.3800        36
    64.4000        30
    64.4200        32
    64.4400        28
    64.4600        26
    64.4800        38
    64.5000        24
    64.5200        36
    64.5400        28
    64.5600        26
    64.5800        22
    64.6000        28
    64.6200        36
    64.6400        34
    64.6600        54
    64.6800        32
    64.7000        36
    64.7200        34
    64.7400        36
    64.7600        34
    64.7800        34
    64.8000        36
    64.8200        28
    64.8400        20
    64.8600        28
    64.8800        22
    64.9000        30
    64.9200        28
    64.9400        22
    64.9600        34
    64.9800        30
    65.0000        30
