/////////////////////////////////////////////////////////////////////////////////
/// Profile Data Ascii Dump (XRD)                                             ///
/////////////////////////////////////////////////////////////////////////////////

  Group     : Swayze
  Data      : GDS40
  File Name : GDS40.RAW

# Profile Datafile
          comment             = Scapolite grp 
          date & time         = 08-04-29 08:14:53 

# Measurement Condition
    X-ray tube
          target              = Cu 
          voltage             = 40.0 (kV)
          current             = 30.0 (mA)
    Slits
          divergence slit     = 2.00000 (deg) 
          scatter slit        = 2.00000 (deg) 
          receiving slit      = 0.15000 (mm)  
    Scanning
          drive axis          = Theta-2Theta 
          scan range          =    4.000 -   65.000 
          scan mode           = Continuous Scan 
          scan speed          =   2.0000 (deg/min) 
          sampling pitch      =   0.0200 (deg) 
          preset time         =   0.60 (sec) 

# Data      [ Total No. = 3051 ]
  <2Theta>   <   I   >
     4.0000       206
     4.0200       174
     4.0400       188
     4.0600       176
     4.0800       186
     4.1000       188
     4.1200       188
     4.1400       156
     4.1600       174
     4.1800       178
     4.2000       176
     4.2200       176
     4.2400       158
     4.2600       176
     4.2800       174
     4.3000       154
     4.3200       158
     4.3400       150
     4.3600       182
     4.3800       162
     4.4000       190
     4.4200       168
     4.4400       150
     4.4600       182
     4.4800       184
     4.5000       164
     4.5200       186
     4.5400       168
     4.5600       152
     4.5800       154
     4.6000       196
     4.6200       170
     4.6400       176
     4.6600       174
     4.6800       156
     4.7000       166
     4.7200       168
     4.7400       150
     4.7600       166
     4.7800       168
     4.8000       174
     4.8200       160
     4.8400       164
     4.8600       142
     4.8800       146
     4.9000       184
     4.9200       156
     4.9400       138
     4.9600       176
     4.9800       156
     5.0000       162
     5.0200       166
     5.0400       182
     5.0600       140
     5.0800       162
     5.1000       154
     5.1200       174
     5.1400       164
     5.1600       152
     5.1800       164
     5.2000       152
     5.2200       160
     5.2400       192
     5.2600       152
     5.2800       170
     5.3000       146
     5.3200       150
     5.3400       160
     5.3600       162
     5.3800       160
     5.4000       170
     5.4200       150
     5.4400       160
     5.4600       154
     5.4800       176
     5.5000       158
     5.5200       164
     5.5400       142
     5.5600       156
     5.5800       164
     5.6000       156
     5.6200       148
     5.6400       138
     5.6600       162
     5.6800       172
     5.7000       166
     5.7200       162
     5.7400       172
     5.7600       152
     5.7800       168
     5.8000       178
     5.8200       172
     5.8400       148
     5.8600       154
     5.8800       162
     5.9000       188
     5.9200       188
     5.9400       164
     5.9600       156
     5.9800       184
     6.0000       150
     6.0200       156
     6.0400       168
     6.0600       154
     6.0800       168
     6.1000       146
     6.1200       172
     6.1400       158
     6.1600       138
     6.1800       148
     6.2000       140
     6.2200       156
     6.2400       144
     6.2600       132
     6.2800       142
     6.3000       158
     6.3200       154
     6.3400       138
     6.3600       130
     6.3800       170
     6.4000       144
     6.4200       132
     6.4400       138
     6.4600       164
     6.4800       128
     6.5000       144
     6.5200       136
     6.5400       144
     6.5600       146
     6.5800       148
     6.6000       134
     6.6200       112
     6.6400       144
     6.6600       138
     6.6800       140
     6.7000       102
     6.7200       128
     6.7400       136
     6.7600       126
     6.7800       134
     6.8000       112
     6.8200       116
     6.8400       118
     6.8600       148
     6.8800       126
     6.9000       102
     6.9200       104
     6.9400       112
     6.9600       124
     6.9800       120
     7.0000       130
     7.0200       126
     7.0400       144
     7.0600       118
     7.0800       102
     7.1000       116
     7.1200       122
     7.1400       128
     7.1600       124
     7.1800       134
     7.2000       126
     7.2200       116
     7.2400       118
     7.2600       150
     7.2800       140
     7.3000       124
     7.3200       118
     7.3400       102
     7.3600       108
     7.3800       100
     7.4000       126
     7.4200       114
     7.4400       128
     7.4600       116
     7.4800       118
     7.5000       122
     7.5200       122
     7.5400       114
     7.5600       120
     7.5800       120
     7.6000       118
     7.6200       114
     7.6400       122
     7.6600       122
     7.6800       140
     7.7000       112
     7.7200       104
     7.7400       132
     7.7600       126
     7.7800       120
     7.8000       118
     7.8200       128
     7.8400       128
     7.8600       118
     7.8800       110
     7.9000       108
     7.9200       112
     7.9400       118
     7.9600       100
     7.9800       104
     8.0000       104
     8.0200       120
     8.0400        98
     8.0600       134
     8.0800       126
     8.1000       104
     8.1200       102
     8.1400       108
     8.1600       114
     8.1800       104
     8.2000       130
     8.2200        94
     8.2400       128
     8.2600       104
     8.2800        98
     8.3000       126
     8.3200       126
     8.3400       124
     8.3600       120
     8.3800       128
     8.4000       124
     8.4200       128
     8.4400       126
     8.4600       108
     8.4800       106
     8.5000       114
     8.5200        94
     8.5400       136
     8.5600       118
     8.5800       114
     8.6000       144
     8.6200       134
     8.6400       126
     8.6600       116
     8.6800       136
     8.7000       114
     8.7200       118
     8.7400       114
     8.7600       100
     8.7800       112
     8.8000       138
     8.8200       100
     8.8400       102
     8.8600       118
     8.8800       110
     8.9000       136
     8.9200       122
     8.9400       124
     8.9600       112
     8.9800       120
     9.0000       118
     9.0200       128
     9.0400       112
     9.0600       116
     9.0800       106
     9.1000       126
     9.1200       114
     9.1400       106
     9.1600       120
     9.1800       110
     9.2000       134
     9.2200       116
     9.2400       110
     9.2600       106
     9.2800       118
     9.3000       110
     9.3200       104
     9.3400       102
     9.3600       118
     9.3800       116
     9.4000       100
     9.4200        98
     9.4400       110
     9.4600       112
     9.4800       108
     9.5000       130
     9.5200       120
     9.5400       110
     9.5600        98
     9.5800       110
     9.6000       116
     9.6200        94
     9.6400       102
     9.6600       120
     9.6800       110
     9.7000       118
     9.7200       130
     9.7400        92
     9.7600       114
     9.7800       126
     9.8000       108
     9.8200       114
     9.8400       114
     9.8600       112
     9.8800       122
     9.9000       118
     9.9200       110
     9.9400       122
     9.9600       114
     9.9800       102
    10.0000       132
    10.0200        96
    10.0400       118
    10.0600       100
    10.0800       124
    10.1000       104
    10.1200       128
    10.1400       110
    10.1600       124
    10.1800       124
    10.2000       112
    10.2200       132
    10.2400       124
    10.2600       126
    10.2800       126
    10.3000       108
    10.3200       110
    10.3400       114
    10.3600       124
    10.3800        96
    10.4000       108
    10.4200       102
    10.4400       122
    10.4600       100
    10.4800       118
    10.5000        98
    10.5200        98
    10.5400       112
    10.5600       104
    10.5800        84
    10.6000        86
    10.6200       116
    10.6400       102
    10.6600        94
    10.6800        98
    10.7000        96
    10.7200       100
    10.7400        98
    10.7600        78
    10.7800       102
    10.8000        96
    10.8200        88
    10.8400        98
    10.8600       116
    10.8800        84
    10.9000        92
    10.9200       104
    10.9400        76
    10.9600        96
    10.9800        92
    11.0000       102
    11.0200        84
    11.0400        90
    11.0600        86
    11.0800       104
    11.1000        86
    11.1200        78
    11.1400        90
    11.1600        86
    11.1800        94
    11.2000        98
    11.2200        94
    11.2400        82
    11.2600        84
    11.2800       104
    11.3000        92
    11.3200        78
    11.3400        90
    11.3600        92
    11.3800        94
    11.4000        82
    11.4200       116
    11.4400        72
    11.4600        82
    11.4800        78
    11.5000        76
    11.5200        84
    11.5400        76
    11.5600        80
    11.5800        90
    11.6000        92
    11.6200        86
    11.6400        74
    11.6600        88
    11.6800        92
    11.7000        86
    11.7200        96
    11.7400        84
    11.7600        86
    11.7800        88
    11.8000        92
    11.8200        84
    11.8400        66
    11.8600        80
    11.8800        94
    11.9000        72
    11.9200        90
    11.9400        66
    11.9600        74
    11.9800        78
    12.0000        66
    12.0200        82
    12.0400        84
    12.0600        92
    12.0800        94
    12.1000        90
    12.1200        88
    12.1400        80
    12.1600        88
    12.1800        84
    12.2000        88
    12.2200        74
    12.2400        82
    12.2600        74
    12.2800        76
    12.3000        80
    12.3200        84
    12.3400        70
    12.3600        76
    12.3800        76
    12.4000        72
    12.4200        88
    12.4400        90
    12.4600        94
    12.4800        68
    12.5000        88
    12.5200        92
    12.5400        96
    12.5600        84
    12.5800        88
    12.6000        68
    12.6200        68
    12.6400        64
    12.6600        72
    12.6800        72
    12.7000        86
    12.7200        60
    12.7400        56
    12.7600        86
    12.7800        84
    12.8000        78
    12.8200        86
    12.8400        70
    12.8600        68
    12.8800        90
    12.9000        76
    12.9200        76
    12.9400        68
    12.9600        64
    12.9800        86
    13.0000        68
    13.0200        80
    13.0400        60
    13.0600        66
    13.0800        74
    13.1000        74
    13.1200        86
    13.1400        76
    13.1600        72
    13.1800        66
    13.2000        64
    13.2200        64
    13.2400        76
    13.2600        62
    13.2800        78
    13.3000        74
    13.3200        50
    13.3400        44
    13.3600        86
    13.3800        72
    13.4000        80
    13.4200        68
    13.4400        78
    13.4600        70
    13.4800        82
    13.5000        76
    13.5200        84
    13.5400        82
    13.5600        80
    13.5800        62
    13.6000        86
    13.6200        74
    13.6400        94
    13.6600        98
    13.6800        92
    13.7000        98
    13.7200        88
    13.7400        84
    13.7600        78
    13.7800       102
    13.8000        98
    13.8200        90
    13.8400        98
    13.8600        74
    13.8800        78
    13.9000        88
    13.9200        72
    13.9400        74
    13.9600        78
    13.9800        72
    14.0000        74
    14.0200        64
    14.0400        70
    14.0600        74
    14.0800        72
    14.1000        58
    14.1200        54
    14.1400        70
    14.1600        68
    14.1800        64
    14.2000        78
    14.2200        82
    14.2400        72
    14.2600        78
    14.2800        76
    14.3000        84
    14.3200        82
    14.3400        80
    14.3600        82
    14.3800        82
    14.4000        82
    14.4200        94
    14.4400       102
    14.4600       132
    14.4800       116
    14.5000       138
    14.5200       136
    14.5400       174
    14.5600       184
    14.5800       194
    14.6000       218
    14.6200       206
    14.6400       176
    14.6600       118
    14.6800        92
    14.7000        66
    14.7200        70
    14.7400        62
    14.7600        60
    14.7800        78
    14.8000        64
    14.8200        60
    14.8400        52
    14.8600        56
    14.8800        58
    14.9000        52
    14.9200        74
    14.9400        68
    14.9600        56
    14.9800        60
    15.0000        58
    15.0200        54
    15.0400        64
    15.0600        54
    15.0800        62
    15.1000        70
    15.1200        58
    15.1400        70
    15.1600        52
    15.1800        56
    15.2000        50
    15.2200        54
    15.2400        60
    15.2600        54
    15.2800        70
    15.3000        82
    15.3200        58
    15.3400        54
    15.3600        54
    15.3800        50
    15.4000        68
    15.4200        54
    15.4400        56
    15.4600        56
    15.4800        68
    15.5000        68
    15.5200        56
    15.5400        50
    15.5600        58
    15.5800        54
    15.6000        50
    15.6200        64
    15.6400        50
    15.6600        42
    15.6800        58
    15.7000        44
    15.7200        66
    15.7400        64
    15.7600        58
    15.7800        52
    15.8000        56
    15.8200        50
    15.8400        56
    15.8600        46
    15.8800        56
    15.9000        50
    15.9200        52
    15.9400        68
    15.9600        52
    15.9800        50
    16.0000        40
    16.0200        52
    16.0400        56
    16.0600        58
    16.0800        60
    16.1000        70
    16.1200        62
    16.1400        70
    16.1600        68
    16.1800        58
    16.2000        48
    16.2200        60
    16.2400        56
    16.2600        62
    16.2800        54
    16.3000        44
    16.3200        60
    16.3400        50
    16.3600        46
    16.3800        40
    16.4000        46
    16.4200        66
    16.4400        52
    16.4600        52
    16.4800        54
    16.5000        52
    16.5200        62
    16.5400        46
    16.5600        58
    16.5800        44
    16.6000        58
    16.6200        64
    16.6400        56
    16.6600        58
    16.6800        58
    16.7000        48
    16.7200        44
    16.7400        58
    16.7600        52
    16.7800        58
    16.8000        40
    16.8200        56
    16.8400        46
    16.8600        44
    16.8800        58
    16.9000        56
    16.9200        50
    16.9400        54
    16.9600        50
    16.9800        38
    17.0000        48
    17.0200        50
    17.0400        60
    17.0600        50
    17.0800        46
    17.1000        58
    17.1200        48
    17.1400        40
    17.1600        58
    17.1800        44
    17.2000        46
    17.2200        44
    17.2400        38
    17.2600        40
    17.2800        52
    17.3000        68
    17.3200        68
    17.3400        46
    17.3600        48
    17.3800        58
    17.4000        62
    17.4200        46
    17.4400        62
    17.4600        72
    17.4800        40
    17.5000        56
    17.5200        52
    17.5400        36
    17.5600        52
    17.5800        50
    17.6000        60
    17.6200        38
    17.6400        54
    17.6600        44
    17.6800        58
    17.7000        52
    17.7200        46
    17.7400        46
    17.7600        56
    17.7800        64
    17.8000        76
    17.8200        44
    17.8400        36
    17.8600        52
    17.8800        44
    17.9000        66
    17.9200        58
    17.9400        36
    17.9600        68
    17.9800        40
    18.0000        44
    18.0200        48
    18.0400        52
    18.0600        60
    18.0800        66
    18.1000        40
    18.1200        62
    18.1400        48
    18.1600        62
    18.1800        52
    18.2000        58
    18.2200        50
    18.2400        50
    18.2600        56
    18.2800        58
    18.3000        48
    18.3200        58
    18.3400        66
    18.3600        58
    18.3800        58
    18.4000        56
    18.4200        44
    18.4400        58
    18.4600        46
    18.4800        58
    18.5000        62
    18.5200        44
    18.5400        60
    18.5600        54
    18.5800        66
    18.6000        50
    18.6200        62
    18.6400        58
    18.6600        60
    18.6800        58
    18.7000        66
    18.7200        52
    18.7400        66
    18.7600        56
    18.7800        58
    18.8000        38
    18.8200        62
    18.8400        50
    18.8600        48
    18.8800        72
    18.9000        48
    18.9200        56
    18.9400        46
    18.9600        54
    18.9800        50
    19.0000        64
    19.0200        54
    19.0400        46
    19.0600        46
    19.0800        60
    19.1000        60
    19.1200        60
    19.1400        54
    19.1600        52
    19.1800        58
    19.2000        46
    19.2200        58
    19.2400        50
    19.2600        40
    19.2800        50
    19.3000        48
    19.3200        32
    19.3400        42
    19.3600        46
    19.3800        38
    19.4000        46
    19.4200        38
    19.4400        40
    19.4600        44
    19.4800        44
    19.5000        62
    19.5200        48
    19.5400        44
    19.5600        60
    19.5800        48
    19.6000        50
    19.6200        48
    19.6400        40
    19.6600        48
    19.6800        42
    19.7000        58
    19.7200        40
    19.7400        50
    19.7600        56
    19.7800        58
    19.8000        46
    19.8200        44
    19.8400        48
    19.8600        56
    19.8800        46
    19.9000        62
    19.9200        64
    19.9400        68
    19.9600        62
    19.9800        96
    20.0000        54
    20.0200        86
    20.0400        78
    20.0600        86
    20.0800       104
    20.1000        90
    20.1200        76
    20.1400        78
    20.1600        88
    20.1800        68
    20.2000        64
    20.2200        52
    20.2400        58
    20.2600        46
    20.2800        44
    20.3000        48
    20.3200        54
    20.3400        52
    20.3600        44
    20.3800        58
    20.4000        56
    20.4200        70
    20.4400        70
    20.4600        62
    20.4800        72
    20.5000        48
    20.5200        68
    20.5400        66
    20.5600        76
    20.5800        66
    20.6000        96
    20.6200        84
    20.6400        90
    20.6600        92
    20.6800        82
    20.7000        78
    20.7200        96
    20.7400       100
    20.7600       112
    20.7800        80
    20.8000        66
    20.8200        62
    20.8400        46
    20.8600        48
    20.8800        50
    20.9000        66
    20.9200        52
    20.9400        52
    20.9600        44
    20.9800        56
    21.0000        62
    21.0200        42
    21.0400        54
    21.0600        48
    21.0800        32
    21.1000        50
    21.1200        52
    21.1400        56
    21.1600        46
    21.1800        44
    21.2000        40
    21.2200        54
    21.2400        48
    21.2600        66
    21.2800        42
    21.3000        46
    21.3200        48
    21.3400        46
    21.3600        44
    21.3800        56
    21.4000        44
    21.4200        40
    21.4400        48
    21.4600        36
    21.4800        34
    21.5000        48
    21.5200        54
    21.5400        38
    21.5600        46
    21.5800        46
    21.6000        42
    21.6200        54
    21.6400        50
    21.6600        38
    21.6800        46
    21.7000        44
    21.7200        46
    21.7400        38
    21.7600        56
    21.7800        52
    21.8000        36
    21.8200        38
    21.8400        42
    21.8600        44
    21.8800        40
    21.9000        40
    21.9200        34
    21.9400        44
    21.9600        42
    21.9800        46
    22.0000        42
    22.0200        40
    22.0400        38
    22.0600        42
    22.0800        48
    22.1000        48
    22.1200        46
    22.1400        42
    22.1600        42
    22.1800        50
    22.2000        44
    22.2200        42
    22.2400        48
    22.2600        46
    22.2800        50
    22.3000        44
    22.3200        44
    22.3400        46
    22.3600        42
    22.3800        38
    22.4000        62
    22.4200        42
    22.4400        36
    22.4600        56
    22.4800        38
    22.5000        38
    22.5200        44
    22.5400        48
    22.5600        56
    22.5800        30
    22.6000        44
    22.6200        48
    22.6400        54
    22.6600        52
    22.6800        40
    22.7000        40
    22.7200        58
    22.7400        54
    22.7600        54
    22.7800        48
    22.8000        58
    22.8200        64
    22.8400        56
    22.8600        86
    22.8800        74
    22.9000        74
    22.9200        78
    22.9400        88
    22.9600       106
    22.9800       132
    23.0000       172
    23.0200       180
    23.0400       218
    23.0600       226
    23.0800       316
    23.1000       378
    23.1200       334
    23.1400       366
    23.1600       380
    23.1800       424
    23.2000       416
    23.2200       406
    23.2400       328
    23.2600       308
    23.2800       220
    23.3000       172
    23.3200       140
    23.3400       100
    23.3600        94
    23.3800        80
    23.4000        72
    23.4200        74
    23.4400        78
    23.4600        64
    23.4800        68
    23.5000        64
    23.5200        66
    23.5400        64
    23.5600        52
    23.5800        42
    23.6000        48
    23.6200        44
    23.6400        44
    23.6600        52
    23.6800        50
    23.7000        42
    23.7200        48
    23.7400        60
    23.7600        56
    23.7800        50
    23.8000        50
    23.8200        42
    23.8400        48
    23.8600        54
    23.8800        40
    23.9000        48
    23.9200        46
    23.9400        42
    23.9600        32
    23.9800        46
    24.0000        32
    24.0200        44
    24.0400        42
    24.0600        44
    24.0800        42
    24.1000        44
    24.1200        64
    24.1400        30
    24.1600        50
    24.1800        42
    24.2000        44
    24.2200        48
    24.2400        42
    24.2600        46
    24.2800        46
    24.3000        42
    24.3200        44
    24.3400        46
    24.3600        36
    24.3800        48
    24.4000        48
    24.4200        36
    24.4400        38
    24.4600        42
    24.4800        48
    24.5000        54
    24.5200        42
    24.5400        46
    24.5600        52
    24.5800        70
    24.6000        60
    24.6200        54
    24.6400        36
    24.6600        50
    24.6800        56
    24.7000        68
    24.7200        74
    24.7400        82
    24.7600       102
    24.7800       116
    24.8000       112
    24.8200       134
    24.8400       154
    24.8600       152
    24.8800       194
    24.9000       234
    24.9200       270
    24.9400       220
    24.9600       208
    24.9800       214
    25.0000       162
    25.0200       160
    25.0400       112
    25.0600       104
    25.0800        80
    25.1000        56
    25.1200        74
    25.1400        66
    25.1600        62
    25.1800        54
    25.2000        74
    25.2200        48
    25.2400        82
    25.2600        84
    25.2800        84
    25.3000        88
    25.3200        96
    25.3400       114
    25.3600       124
    25.3800       120
    25.4000       162
    25.4200       174
    25.4400       214
    25.4600       268
    25.4800       310
    25.5000       442
    25.5200       524
    25.5400       646
    25.5600       724
    25.5800       804
    25.6000       952
    25.6200      1202
    25.6400      1472
    25.6600      1328
    25.6800      1574
    25.7000      1730
    25.7200      1450
    25.7400      1524
    25.7600      1526
    25.7800       970
    25.8000       704
    25.8200       590
    25.8400       434
    25.8600       218
    25.8800       106
    25.9000        98
    25.9200        86
    25.9400        68
    25.9600        60
    25.9800        76
    26.0000        56
    26.0200        54
    26.0400        64
    26.0600        52
    26.0800        48
    26.1000        62
    26.1200        58
    26.1400        66
    26.1600        60
    26.1800        46
    26.2000        60
    26.2200        46
    26.2400        42
    26.2600        50
    26.2800        42
    26.3000        40
    26.3200        32
    26.3400        50
    26.3600        50
    26.3800        42
    26.4000        40
    26.4200        40
    26.4400        46
    26.4600        52
    26.4800        42
    26.5000        34
    26.5200        56
    26.5400        34
    26.5600        36
    26.5800        38
    26.6000        40
    26.6200        44
    26.6400        38
    26.6600        36
    26.6800        38
    26.7000        40
    26.7200        30
    26.7400        46
    26.7600        30
    26.7800        36
    26.8000        36
    26.8200        36
    26.8400        32
    26.8600        42
    26.8800        36
    26.9000        34
    26.9200        30
    26.9400        30
    26.9600        42
    26.9800        42
    27.0000        30
    27.0200        36
    27.0400        32
    27.0600        34
    27.0800        34
    27.1000        40
    27.1200        36
    27.1400        36
    27.1600        40
    27.1800        38
    27.2000        24
    27.2200        38
    27.2400        42
    27.2600        34
    27.2800        28
    27.3000        34
    27.3200        36
    27.3400        38
    27.3600        40
    27.3800        38
    27.4000        36
    27.4200        30
    27.4400        48
    27.4600        34
    27.4800        36
    27.5000        36
    27.5200        32
    27.5400        36
    27.5600        26
    27.5800        32
    27.6000        46
    27.6200        50
    27.6400        40
    27.6600        34
    27.6800        46
    27.7000        46
    27.7200        56
    27.7400        44
    27.7600        46
    27.7800        50
    27.8000        40
    27.8200        32
    27.8400        36
    27.8600        44
    27.8800        34
    27.9000        44
    27.9200        30
    27.9400        24
    27.9600        42
    27.9800        38
    28.0000        32
    28.0200        50
    28.0400        34
    28.0600        40
    28.0800        34
    28.1000        40
    28.1200        46
    28.1400        28
    28.1600        40
    28.1800        42
    28.2000        48
    28.2200        34
    28.2400        38
    28.2600        50
    28.2800        34
    28.3000        42
    28.3200        38
    28.3400        50
    28.3600        46
    28.3800        46
    28.4000        34
    28.4200        46
    28.4400        34
    28.4600        38
    28.4800        50
    28.5000        44
    28.5200        44
    28.5400        50
    28.5600        52
    28.5800        56
    28.6000        66
    28.6200        50
    28.6400        64
    28.6600        76
    28.6800        78
    28.7000        94
    28.7200       100
    28.7400        98
    28.7600       108
    28.7800       130
    28.8000       142
    28.8200       180
    28.8400       204
    28.8600       222
    28.8800       234
    28.9000       420
    28.9200       514
    28.9400       636
    28.9600       710
    28.9800       730
    29.0000       906
    29.0200       894
    29.0400       884
    29.0600       696
    29.0800       690
    29.1000       614
    29.1200       434
    29.1400       354
    29.1600       228
    29.1800       198
    29.2000       184
    29.2200       166
    29.2400       156
    29.2600       218
    29.2800       276
    29.3000       322
    29.3200       354
    29.3400       416
    29.3600       472
    29.3800       556
    29.4000       704
    29.4200       988
    29.4400      1024
    29.4600       832
    29.4800       644
    29.5000       650
    29.5200       562
    29.5400       348
    29.5600       212
    29.5800       138
    29.6000        92
    29.6200        86
    29.6400        60
    29.6600        80
    29.6800        64
    29.7000        56
    29.7200        58
    29.7400        40
    29.7600        44
    29.7800        52
    29.8000        60
    29.8200        38
    29.8400        32
    29.8600        28
    29.8800        44
    29.9000        44
    29.9200        38
    29.9400        44
    29.9600        40
    29.9800        34
    30.0000        34
    30.0200        32
    30.0400        26
    30.0600        34
    30.0800        30
    30.1000        34
    30.1200        28
    30.1400        40
    30.1600        42
    30.1800        28
    30.2000        26
    30.2200        28
    30.2400        42
    30.2600        36
    30.2800        44
    30.3000        30
    30.3200        26
    30.3400        26
    30.3600        38
    30.3800        32
    30.4000        48
    30.4200        30
    30.4400        32
    30.4600        28
    30.4800        30
    30.5000        44
    30.5200        36
    30.5400        34
    30.5600        28
    30.5800        34
    30.6000        32
    30.6200        32
    30.6400        38
    30.6600        38
    30.6800        38
    30.7000        40
    30.7200        42
    30.7400        40
    30.7600        22
    30.7800        32
    30.8000        30
    30.8200        32
    30.8400        30
    30.8600        38
    30.8800        24
    30.9000        32
    30.9200        36
    30.9400        30
    30.9600        26
    30.9800        42
    31.0000        36
    31.0200        38
    31.0400        32
    31.0600        38
    31.0800        38
    31.1000        40
    31.1200        54
    31.1400        70
    31.1600        72
    31.1800        72
    31.2000        98
    31.2200       104
    31.2400       116
    31.2600       124
    31.2800        96
    31.3000        88
    31.3200        96
    31.3400        88
    31.3600       122
    31.3800        96
    31.4000        94
    31.4200       110
    31.4400        94
    31.4600        82
    31.4800        96
    31.5000        76
    31.5200        86
    31.5400        76
    31.5600        68
    31.5800        54
    31.6000        54
    31.6200        44
    31.6400        36
    31.6600        32
    31.6800        38
    31.7000        30
    31.7200        32
    31.7400        38
    31.7600        26
    31.7800        26
    31.8000        36
    31.8200        42
    31.8400        34
    31.8600        32
    31.8800        30
    31.9000        38
    31.9200        32
    31.9400        28
    31.9600        34
    31.9800        44
    32.0000        36
    32.0200        38
    32.0400        48
    32.0600        36
    32.0800        28
    32.1000        32
    32.1200        38
    32.1400        34
    32.1600        34
    32.1800        42
    32.2000        38
    32.2200        24
    32.2400        36
    32.2600        38
    32.2800        62
    32.3000        40
    32.3200        54
    32.3400        28
    32.3600        38
    32.3800        40
    32.4000        70
    32.4200        56
    32.4400        60
    32.4600        52
    32.4800        72
    32.5000        80
    32.5200       106
    32.5400       104
    32.5600       168
    32.5800       218
    32.6000       206
    32.6200       304
    32.6400       338
    32.6600       344
    32.6800       362
    32.7000       356
    32.7200       312
    32.7400       230
    32.7600       200
    32.7800       166
    32.8000       138
    32.8200       108
    32.8400        86
    32.8600        72
    32.8800        94
    32.9000       112
    32.9200       106
    32.9400       134
    32.9600       154
    32.9800       196
    33.0000       238
    33.0200       274
    33.0400       282
    33.0600       280
    33.0800       306
    33.1000       338
    33.1200       340
    33.1400       432
    33.1600       504
    33.1800       470
    33.2000       510
    33.2200       500
    33.2400       470
    33.2600       426
    33.2800       322
    33.3000       314
    33.3200       226
    33.3400       174
    33.3600       122
    33.3800        98
    33.4000        58
    33.4200        70
    33.4400        60
    33.4600        58
    33.4800        54
    33.5000        30
    33.5200        32
    33.5400        40
    33.5600        38
    33.5800        46
    33.6000        20
    33.6200        34
    33.6400        36
    33.6600        30
    33.6800        28
    33.7000        38
    33.7200        34
    33.7400        36
    33.7600        30
    33.7800        30
    33.8000        32
    33.8200        36
    33.8400        28
    33.8600        32
    33.8800        24
    33.9000        20
    33.9200        34
    33.9400        32
    33.9600        26
    33.9800        38
    34.0000        26
    34.0200        40
    34.0400        32
    34.0600        24
    34.0800        32
    34.1000        30
    34.1200        42
    34.1400        26
    34.1600        28
    34.1800        38
    34.2000        34
    34.2200        26
    34.2400        26
    34.2600        26
    34.2800        26
    34.3000        30
    34.3200        32
    34.3400        30
    34.3600        32
    34.3800        24
    34.4000        26
    34.4200        26
    34.4400        36
    34.4600        30
    34.4800        38
    34.5000        38
    34.5200        30
    34.5400        26
    34.5600        28
    34.5800        32
    34.6000        24
    34.6200        24
    34.6400        26
    34.6600        24
    34.6800        34
    34.7000        38
    34.7200        28
    34.7400        26
    34.7600        32
    34.7800        38
    34.8000        36
    34.8200        30
    34.8400        34
    34.8600        20
    34.8800        30
    34.9000        30
    34.9200        30
    34.9400        42
    34.9600        28
    34.9800        16
    35.0000        26
    35.0200        34
    35.0400        36
    35.0600        24
    35.0800        34
    35.1000        46
    35.1200        34
    35.1400        34
    35.1600        36
    35.1800        26
    35.2000        30
    35.2200        32
    35.2400        28
    35.2600        26
    35.2800        26
    35.3000        26
    35.3200        40
    35.3400        28
    35.3600        28
    35.3800        18
    35.4000        32
    35.4200        36
    35.4400        24
    35.4600        38
    35.4800        24
    35.5000        24
    35.5200        28
    35.5400        34
    35.5600        40
    35.5800        30
    35.6000        28
    35.6200        28
    35.6400        38
    35.6600        26
    35.6800        48
    35.7000        26
    35.7200        28
    35.7400        30
    35.7600        28
    35.7800        32
    35.8000        26
    35.8200        26
    35.8400        40
    35.8600        28
    35.8800        26
    35.9000        38
    35.9200        36
    35.9400        24
    35.9600        30
    35.9800        32
    36.0000        30
    36.0200        18
    36.0400        24
    36.0600        22
    36.0800        32
    36.1000        46
    36.1200        22
    36.1400        30
    36.1600        28
    36.1800        36
    36.2000        32
    36.2200        30
    36.2400        18
    36.2600        28
    36.2800        28
    36.3000        32
    36.3200        38
    36.3400        32
    36.3600        30
    36.3800        46
    36.4000        18
    36.4200        28
    36.4400        26
    36.4600        24
    36.4800        28
    36.5000        24
    36.5200        28
    36.5400        26
    36.5600        20
    36.5800        26
    36.6000        26
    36.6200        34
    36.6400        24
    36.6600        26
    36.6800        22
    36.7000        28
    36.7200        30
    36.7400        24
    36.7600        30
    36.7800        28
    36.8000        26
    36.8200        28
    36.8400        28
    36.8600        32
    36.8800        36
    36.9000        32
    36.9200        30
    36.9400        42
    36.9600        36
    36.9800        32
    37.0000        30
    37.0200        34
    37.0400        40
    37.0600        34
    37.0800        20
    37.1000        32
    37.1200        24
    37.1400        28
    37.1600        22
    37.1800        34
    37.2000        36
    37.2200        24
    37.2400        30
    37.2600        28
    37.2800        34
    37.3000        30
    37.3200        34
    37.3400        42
    37.3600        34
    37.3800        28
    37.4000        38
    37.4200        28
    37.4400        36
    37.4600        30
    37.4800        34
    37.5000        30
    37.5200        46
    37.5400        32
    37.5600        26
    37.5800        36
    37.6000        28
    37.6200        44
    37.6400        34
    37.6600        36
    37.6800        46
    37.7000        46
    37.7200        58
    37.7400        66
    37.7600        70
    37.7800        78
    37.8000       100
    37.8200        88
    37.8400        76
    37.8600        88
    37.8800        62
    37.9000        62
    37.9200        62
    37.9400        58
    37.9600        40
    37.9800        38
    38.0000        48
    38.0200        40
    38.0400        30
    38.0600        46
    38.0800        30
    38.1000        34
    38.1200        28
    38.1400        32
    38.1600        26
    38.1800        32
    38.2000        36
    38.2200        40
    38.2400        20
    38.2600        26
    38.2800        28
    38.3000        24
    38.3200        34
    38.3400        36
    38.3600        38
    38.3800        30
    38.4000        36
    38.4200        40
    38.4400        14
    38.4600        32
    38.4800        42
    38.5000        44
    38.5200        28
    38.5400        26
    38.5600        32
    38.5800        32
    38.6000        46
    38.6200        34
    38.6400        36
    38.6600        42
    38.6800        38
    38.7000        38
    38.7200        34
    38.7400        58
    38.7600        48
    38.7800        70
    38.8000        66
    38.8200        62
    38.8400        80
    38.8600        90
    38.8800       114
    38.9000       130
    38.9200       186
    38.9400       214
    38.9600       202
    38.9800       214
    39.0000       244
    39.0200       236
    39.0400       188
    39.0600       140
    39.0800       130
    39.1000       124
    39.1200       108
    39.1400        90
    39.1600        72
    39.1800        56
    39.2000        48
    39.2200        48
    39.2400        42
    39.2600        44
    39.2800        56
    39.3000        50
    39.3200        52
    39.3400        50
    39.3600        50
    39.3800        44
    39.4000        64
    39.4200        42
    39.4400        60
    39.4600        78
    39.4800        76
    39.5000        76
    39.5200        80
    39.5400        62
    39.5600        68
    39.5800        52
    39.6000        48
    39.6200        36
    39.6400        44
    39.6600        38
    39.6800        22
    39.7000        32
    39.7200        32
    39.7400        28
    39.7600        32
    39.7800        28
    39.8000        30
    39.8200        36
    39.8400        38
    39.8600        18
    39.8800        30
    39.9000        36
    39.9200        34
    39.9400        36
    39.9600        24
    39.9800        28
    40.0000        38
    40.0200        36
    40.0400        18
    40.0600        34
    40.0800        34
    40.1000        24
    40.1200        28
    40.1400        38
    40.1600        18
    40.1800        34
    40.2000        42
    40.2200        34
    40.2400        30
    40.2600        28
    40.2800        26
    40.3000        40
    40.3200        30
    40.3400        30
    40.3600        38
    40.3800        36
    40.4000        24
    40.4200        32
    40.4400        22
    40.4600        28
    40.4800        32
    40.5000        28
    40.5200        30
    40.5400        34
    40.5600        28
    40.5800        34
    40.6000        28
    40.6200        32
    40.6400        26
    40.6600        32
    40.6800        26
    40.7000        32
    40.7200        24
    40.7400        30
    40.7600        50
    40.7800        66
    40.8000        56
    40.8200        84
    40.8400        86
    40.8600        82
    40.8800       100
    40.9000        86
    40.9200       102
    40.9400        80
    40.9600        70
    40.9800        64
    41.0000        58
    41.0200        58
    41.0400        62
    41.0600        46
    41.0800        44
    41.1000        28
    41.1200        26
    41.1400        34
    41.1600        30
    41.1800        34
    41.2000        30
    41.2200        26
    41.2400        34
    41.2600        28
    41.2800        32
    41.3000        34
    41.3200        40
    41.3400        30
    41.3600        32
    41.3800        42
    41.4000        42
    41.4200        32
    41.4400        24
    41.4600        24
    41.4800        44
    41.5000        34
    41.5200        38
    41.5400        34
    41.5600        42
    41.5800        52
    41.6000        40
    41.6200        34
    41.6400        54
    41.6600        42
    41.6800        52
    41.7000        70
    41.7200        58
    41.7400        68
    41.7600        94
    41.7800       118
    41.8000       110
    41.8200       120
    41.8400       116
    41.8600       100
    41.8800       128
    41.9000       146
    41.9200       152
    41.9400       112
    41.9600       106
    41.9800        94
    42.0000       140
    42.0200       178
    42.0400       296
    42.0600       342
    42.0800       304
    42.1000       296
    42.1200       314
    42.1400       320
    42.1600       314
    42.1800       262
    42.2000       230
    42.2200       212
    42.2400       160
    42.2600       132
    42.2800       106
    42.3000        88
    42.3200        72
    42.3400        72
    42.3600        58
    42.3800        52
    42.4000        34
    42.4200        36
    42.4400        44
    42.4600        24
    42.4800        30
    42.5000        30
    42.5200        28
    42.5400        36
    42.5600        36
    42.5800        42
    42.6000        28
    42.6200        24
    42.6400        30
    42.6600        22
    42.6800        28
    42.7000        28
    42.7200        24
    42.7400        24
    42.7600        38
    42.7800        36
    42.8000        36
    42.8200        34
    42.8400        34
    42.8600        32
    42.8800        32
    42.9000        34
    42.9200        24
    42.9400        24
    42.9600        32
    42.9800        38
    43.0000        22
    43.0200        22
    43.0400        46
    43.0600        24
    43.0800        34
    43.1000        34
    43.1200        42
    43.1400        28
    43.1600        34
    43.1800        30
    43.2000        32
    43.2200        20
    43.2400        32
    43.2600        40
    43.2800        36
    43.3000        38
    43.3200        30
    43.3400        48
    43.3600        58
    43.3800        62
    43.4000       108
    43.4200       156
    43.4400       164
    43.4600       110
    43.4800       112
    43.5000       100
    43.5200       118
    43.5400       158
    43.5600       120
    43.5800        96
    43.6000        78
    43.6200        50
    43.6400        52
    43.6600        54
    43.6800        44
    43.7000        46
    43.7200        40
    43.7400        32
    43.7600        38
    43.7800        30
    43.8000        40
    43.8200        24
    43.8400        28
    43.8600        34
    43.8800        30
    43.9000        20
    43.9200        28
    43.9400        38
    43.9600        24
    43.9800        26
    44.0000        30
    44.0200        30
    44.0400        20
    44.0600        34
    44.0800        38
    44.1000        22
    44.1200        34
    44.1400        30
    44.1600        34
    44.1800        22
    44.2000        28
    44.2200        28
    44.2400        30
    44.2600        26
    44.2800        24
    44.3000        24
    44.3200        28
    44.3400        36
    44.3600        28
    44.3800        36
    44.4000        28
    44.4200        28
    44.4400        32
    44.4600        34
    44.4800        30
    44.5000        50
    44.5200        36
    44.5400        34
    44.5600        26
    44.5800        40
    44.6000        34
    44.6200        38
    44.6400        56
    44.6600        48
    44.6800        70
    44.7000        64
    44.7200        82
    44.7400        92
    44.7600        94
    44.7800       150
    44.8000       210
    44.8200       220
    44.8400       178
    44.8600       178
    44.8800       192
    44.9000       166
    44.9200       184
    44.9400       180
    44.9600       144
    44.9800       150
    45.0000       116
    45.0200       126
    45.0400       102
    45.0600        94
    45.0800        64
    45.1000        60
    45.1200        72
    45.1400        68
    45.1600        46
    45.1800        60
    45.2000        32
    45.2200        30
    45.2400        42
    45.2600        28
    45.2800        30
    45.3000        36
    45.3200        38
    45.3400        30
    45.3600        36
    45.3800        20
    45.4000        38
    45.4200        40
    45.4400        30
    45.4600        28
    45.4800        36
    45.5000        42
    45.5200        44
    45.5400        36
    45.5600        24
    45.5800        44
    45.6000        26
    45.6200        24
    45.6400        26
    45.6600        38
    45.6800        32
    45.7000        26
    45.7200        28
    45.7400        34
    45.7600        28
    45.7800        24
    45.8000        24
    45.8200        36
    45.8400        46
    45.8600        42
    45.8800        30
    45.9000        42
    45.9200        28
    45.9400        28
    45.9600        26
    45.9800        32
    46.0000        28
    46.0200        24
    46.0400        34
    46.0600        34
    46.0800        30
    46.1000        26
    46.1200        32
    46.1400        20
    46.1600        30
    46.1800        32
    46.2000        32
    46.2200        28
    46.2400        24
    46.2600        28
    46.2800        30
    46.3000        44
    46.3200        24
    46.3400        32
    46.3600        34
    46.3800        34
    46.4000        32
    46.4200        30
    46.4400        28
    46.4600        32
    46.4800        26
    46.5000        34
    46.5200        42
    46.5400        40
    46.5600        36
    46.5800        36
    46.6000        42
    46.6200        26
    46.6400        24
    46.6600        30
    46.6800        36
    46.7000        38
    46.7200        46
    46.7400        48
    46.7600        24
    46.7800        32
    46.8000        46
    46.8200        34
    46.8400        44
    46.8600        42
    46.8800        42
    46.9000        52
    46.9200        48
    46.9400        48
    46.9600        60
    46.9800        68
    47.0000        86
    47.0200        96
    47.0400       134
    47.0600       184
    47.0800       204
    47.1000       306
    47.1200       350
    47.1400       294
    47.1600       284
    47.1800       224
    47.2000       202
    47.2200       260
    47.2400       250
    47.2600       264
    47.2800       248
    47.3000       248
    47.3200       290
    47.3400       308
    47.3600       310
    47.3800       338
    47.4000       364
    47.4200       424
    47.4400       404
    47.4600       300
    47.4800       268
    47.5000       236
    47.5200       204
    47.5400       196
    47.5600       200
    47.5800       146
    47.6000       118
    47.6200        88
    47.6400        80
    47.6600        80
    47.6800        84
    47.7000        80
    47.7200        60
    47.7400        78
    47.7600        74
    47.7800        70
    47.8000        86
    47.8200        80
    47.8400       162
    47.8600       184
    47.8800       258
    47.9000       340
    47.9200       312
    47.9400       260
    47.9600       214
    47.9800       244
    48.0000       222
    48.0200       208
    48.0400       212
    48.0600       160
    48.0800       126
    48.1000       132
    48.1200       104
    48.1400        84
    48.1600        52
    48.1800        60
    48.2000        58
    48.2200        52
    48.2400        30
    48.2600        26
    48.2800        30
    48.3000        42
    48.3200        26
    48.3400        42
    48.3600        32
    48.3800        32
    48.4000        34
    48.4200        28
    48.4400        30
    48.4600        28
    48.4800        32
    48.5000        28
    48.5200        30
    48.5400        36
    48.5600        38
    48.5800        32
    48.6000        34
    48.6200        38
    48.6400        44
    48.6600        38
    48.6800        26
    48.7000        30
    48.7200        34
    48.7400        30
    48.7600        30
    48.7800        24
    48.8000        24
    48.8200        28
    48.8400        24
    48.8600        38
    48.8800        42
    48.9000        32
    48.9200        26
    48.9400        38
    48.9600        38
    48.9800        36
    49.0000        46
    49.0200        28
    49.0400        28
    49.0600        36
    49.0800        24
    49.1000        20
    49.1200        24
    49.1400        28
    49.1600        40
    49.1800        40
    49.2000        28
    49.2200        38
    49.2400        32
    49.2600        36
    49.2800        30
    49.3000        26
    49.3200        42
    49.3400        40
    49.3600        42
    49.3800        32
    49.4000        34
    49.4200        56
    49.4400        42
    49.4600        50
    49.4800        50
    49.5000        42
    49.5200        46
    49.5400        80
    49.5600        74
    49.5800        76
    49.6000        94
    49.6200       100
    49.6400       124
    49.6600       214
    49.6800       200
    49.7000       186
    49.7200       122
    49.7400        98
    49.7600        74
    49.7800       104
    49.8000       108
    49.8200       110
    49.8400        88
    49.8600        88
    49.8800        52
    49.9000        74
    49.9200        74
    49.9400        78
    49.9600        72
    49.9800        88
    50.0000        82
    50.0200        88
    50.0400        78
    50.0600        68
    50.0800        60
    50.1000        66
    50.1200        52
    50.1400        58
    50.1600        52
    50.1800        42
    50.2000        44
    50.2200        38
    50.2400        42
    50.2600        34
    50.2800        32
    50.3000        32
    50.3200        24
    50.3400        36
    50.3600        42
    50.3800        26
    50.4000        34
    50.4200        28
    50.4400        32
    50.4600        18
    50.4800        30
    50.5000        24
    50.5200        28
    50.5400        22
    50.5600        28
    50.5800        36
    50.6000        30
    50.6200        32
    50.6400        40
    50.6600        26
    50.6800        30
    50.7000        18
    50.7200        30
    50.7400        26
    50.7600        24
    50.7800        40
    50.8000        24
    50.8200        26
    50.8400        32
    50.8600        32
    50.8800        26
    50.9000        38
    50.9200        28
    50.9400        32
    50.9600        30
    50.9800        28
    51.0000        32
    51.0200        32
    51.0400        26
    51.0600        36
    51.0800        34
    51.1000        36
    51.1200        24
    51.1400        34
    51.1600        30
    51.1800        38
    51.2000        48
    51.2200        34
    51.2400        36
    51.2600        44
    51.2800        24
    51.3000        30
    51.3200        34
    51.3400        42
    51.3600        28
    51.3800        38
    51.4000        16
    51.4200        26
    51.4400        24
    51.4600        26
    51.4800        26
    51.5000        26
    51.5200        32
    51.5400        28
    51.5600        32
    51.5800        30
    51.6000        26
    51.6200        36
    51.6400        20
    51.6600        26
    51.6800        26
    51.7000        32
    51.7200        24
    51.7400        24
    51.7600        46
    51.7800        32
    51.8000        38
    51.8200        36
    51.8400        34
    51.8600        42
    51.8800        46
    51.9000        56
    51.9200        56
    51.9400        74
    51.9600        54
    51.9800        68
    52.0000        72
    52.0200        88
    52.0400        64
    52.0600        74
    52.0800        76
    52.1000        62
    52.1200        68
    52.1400        62
    52.1600        82
    52.1800        70
    52.2000        70
    52.2200       114
    52.2400       136
    52.2600       142
    52.2800       132
    52.3000        92
    52.3200        72
    52.3400        62
    52.3600        58
    52.3800        68
    52.4000        80
    52.4200        72
    52.4400        62
    52.4600        48
    52.4800        56
    52.5000        30
    52.5200        26
    52.5400        34
    52.5600        42
    52.5800        32
    52.6000        30
    52.6200        42
    52.6400        28
    52.6600        26
    52.6800        38
    52.7000        34
    52.7200        26
    52.7400        30
    52.7600        28
    52.7800        38
    52.8000        34
    52.8200        46
    52.8400        32
    52.8600        22
    52.8800        24
    52.9000        38
    52.9200        34
    52.9400        30
    52.9600        32
    52.9800        28
    53.0000        26
    53.0200        44
    53.0400        26
    53.0600        20
    53.0800        36
    53.1000        30
    53.1200        32
    53.1400        32
    53.1600        32
    53.1800        52
    53.2000        40
    53.2200        46
    53.2400        42
    53.2600        52
    53.2800        46
    53.3000        62
    53.3200        80
    53.3400        92
    53.3600       124
    53.3800       180
    53.4000       220
    53.4200       260
    53.4400       250
    53.4600       156
    53.4800       190
    53.5000       188
    53.5200       148
    53.5400       154
    53.5600       134
    53.5800       144
    53.6000       118
    53.6200        92
    53.6400       108
    53.6600        78
    53.6800        58
    53.7000        56
    53.7200        48
    53.7400        46
    53.7600        46
    53.7800        40
    53.8000        28
    53.8200        40
    53.8400        34
    53.8600        34
    53.8800        32
    53.9000        24
    53.9200        28
    53.9400        24
    53.9600        30
    53.9800        28
    54.0000        28
    54.0200        32
    54.0400        24
    54.0600        36
    54.0800        38
    54.1000        34
    54.1200        30
    54.1400        28
    54.1600        26
    54.1800        28
    54.2000        24
    54.2200        26
    54.2400        28
    54.2600        28
    54.2800        36
    54.3000        24
    54.3200        30
    54.3400        28
    54.3600        26
    54.3800        42
    54.4000        32
    54.4200        38
    54.4400        28
    54.4600        38
    54.4800        40
    54.5000        54
    54.5200        48
    54.5400        64
    54.5600        80
    54.5800        94
    54.6000        86
    54.6200        66
    54.6400        66
    54.6600        76
    54.6800        64
    54.7000        70
    54.7200        54
    54.7400        50
    54.7600        68
    54.7800        38
    54.8000        42
    54.8200        44
    54.8400        30
    54.8600        30
    54.8800        28
    54.9000        30
    54.9200        32
    54.9400        30
    54.9600        28
    54.9800        26
    55.0000        28
    55.0200        24
    55.0400        26
    55.0600        34
    55.0800        26
    55.1000        22
    55.1200        38
    55.1400        28
    55.1600        32
    55.1800        16
    55.2000        24
    55.2200        28
    55.2400        26
    55.2600        24
    55.2800        36
    55.3000        28
    55.3200        26
    55.3400        22
    55.3600        26
    55.3800        30
    55.4000        34
    55.4200        38
    55.4400        20
    55.4600        30
    55.4800        24
    55.5000        18
    55.5200        20
    55.5400        28
    55.5600        32
    55.5800        36
    55.6000        32
    55.6200        26
    55.6400        16
    55.6600        20
    55.6800        28
    55.7000        30
    55.7200        20
    55.7400        30
    55.7600        22
    55.7800        26
    55.8000        22
    55.8200        36
    55.8400        22
    55.8600        32
    55.8800        32
    55.9000        36
    55.9200        30
    55.9400        20
    55.9600        26
    55.9800        32
    56.0000        20
    56.0200        30
    56.0400        22
    56.0600        24
    56.0800        34
    56.1000        34
    56.1200        26
    56.1400        28
    56.1600        28
    56.1800        28
    56.2000        36
    56.2200        30
    56.2400        44
    56.2600        28
    56.2800        30
    56.3000        22
    56.3200        34
    56.3400        32
    56.3600        26
    56.3800        38
    56.4000        46
    56.4200        30
    56.4400        52
    56.4600        50
    56.4800        54
    56.5000        70
    56.5200        50
    56.5400        84
    56.5600        68
    56.5800        88
    56.6000        54
    56.6200        66
    56.6400        48
    56.6600        54
    56.6800        52
    56.7000        58
    56.7200        32
    56.7400        46
    56.7600        38
    56.7800        42
    56.8000        36
    56.8200        46
    56.8400        24
    56.8600        34
    56.8800        36
    56.9000        32
    56.9200        38
    56.9400        38
    56.9600        30
    56.9800        18
    57.0000        22
    57.0200        22
    57.0400        30
    57.0600        32
    57.0800        24
    57.1000        36
    57.1200        30
    57.1400        30
    57.1600        40
    57.1800        68
    57.2000        76
    57.2200       106
    57.2400       126
    57.2600       132
    57.2800       130
    57.3000        84
    57.3200        70
    57.3400        68
    57.3600        74
    57.3800        80
    57.4000        94
    57.4200        88
    57.4400        64
    57.4600        64
    57.4800        40
    57.5000        44
    57.5200        30
    57.5400        26
    57.5600        32
    57.5800        30
    57.6000        22
    57.6200        32
    57.6400        24
    57.6600        36
    57.6800        26
    57.7000        36
    57.7200        38
    57.7400        32
    57.7600        48
    57.7800        56
    57.8000        36
    57.8200        34
    57.8400        40
    57.8600        36
    57.8800        56
    57.9000        70
    57.9200        74
    57.9400        50
    57.9600        48
    57.9800        54
    58.0000        60
    58.0200        42
    58.0400        34
    58.0600        50
    58.0800        52
    58.1000        46
    58.1200        30
    58.1400        34
    58.1600        28
    58.1800        40
    58.2000        28
    58.2200        18
    58.2400        26
    58.2600        32
    58.2800        30
    58.3000        24
    58.3200        44
    58.3400        34
    58.3600        28
    58.3800        30
    58.4000        28
    58.4200        26
    58.4400        34
    58.4600        34
    58.4800        46
    58.5000        38
    58.5200        24
    58.5400        30
    58.5600        30
    58.5800        44
    58.6000        34
    58.6200        26
    58.6400        34
    58.6600        32
    58.6800        32
    58.7000        38
    58.7200        28
    58.7400        40
    58.7600        26
    58.7800        32
    58.8000        32
    58.8200        52
    58.8400        44
    58.8600        44
    58.8800        58
    58.9000        76
    58.9200        80
    58.9400       118
    58.9600       130
    58.9800       140
    59.0000       164
    59.0200       156
    59.0400       144
    59.0600       134
    59.0800       128
    59.1000       110
    59.1200       124
    59.1400       126
    59.1600        98
    59.1800        98
    59.2000        98
    59.2200        80
    59.2400        56
    59.2600        44
    59.2800        54
    59.3000        52
    59.3200        50
    59.3400        46
    59.3600        36
    59.3800        42
    59.4000        38
    59.4200        46
    59.4400        40
    59.4600        42
    59.4800        50
    59.5000        44
    59.5200        28
    59.5400        32
    59.5600        24
    59.5800        32
    59.6000        42
    59.6200        36
    59.6400        26
    59.6600        32
    59.6800        26
    59.7000        18
    59.7200        22
    59.7400        28
    59.7600        22
    59.7800        36
    59.8000        18
    59.8200        32
    59.8400        28
    59.8600        26
    59.8800        26
    59.9000        28
    59.9200        26
    59.9400        26
    59.9600        28
    59.9800        28
    60.0000        20
    60.0200        32
    60.0400        24
    60.0600        30
    60.0800        46
    60.1000        24
    60.1200        34
    60.1400        34
    60.1600        48
    60.1800        44
    60.2000        50
    60.2200        40
    60.2400        34
    60.2600        46
    60.2800        34
    60.3000        36
    60.3200        38
    60.3400        40
    60.3600        38
    60.3800        46
    60.4000        50
    60.4200        30
    60.4400        48
    60.4600        34
    60.4800        42
    60.5000        28
    60.5200        24
    60.5400        32
    60.5600        26
    60.5800        32
    60.6000        24
    60.6200        34
    60.6400        18
    60.6600        22
    60.6800        38
    60.7000        32
    60.7200        36
    60.7400        28
    60.7600        20
    60.7800        34
    60.8000        26
    60.8200        34
    60.8400        46
    60.8600        36
    60.8800        44
    60.9000        38
    60.9200        48
    60.9400        48
    60.9600        60
    60.9800        44
    61.0000        44
    61.0200        66
    61.0400        62
    61.0600        54
    61.0800        94
    61.1000        78
    61.1200        92
    61.1400        64
    61.1600        64
    61.1800        86
    61.2000        82
    61.2200        68
    61.2400        76
    61.2600        48
    61.2800        50
    61.3000        42
    61.3200        62
    61.3400        44
    61.3600        34
    61.3800        46
    61.4000        36
    61.4200        40
    61.4400        34
    61.4600        32
    61.4800        32
    61.5000        32
    61.5200        30
    61.5400        24
    61.5600        36
    61.5800        22
    61.6000        26
    61.6200        18
    61.6400        36
    61.6600        36
    61.6800        20
    61.7000        48
    61.7200        32
    61.7400        36
    61.7600        24
    61.7800        16
    61.8000        28
    61.8200        34
    61.8400        36
    61.8600        30
    61.8800        16
    61.9000        38
    61.9200        38
    61.9400        34
    61.9600        30
    61.9800        30
    62.0000        22
    62.0200        22
    62.0400        24
    62.0600        28
    62.0800        34
    62.1000        30
    62.1200        28
    62.1400        24
    62.1600        34
    62.1800        36
    62.2000        24
    62.2200        30
    62.2400        36
    62.2600        44
    62.2800        30
    62.3000        42
    62.3200        30
    62.3400        34
    62.3600        18
    62.3800        38
    62.4000        36
    62.4200        28
    62.4400        34
    62.4600        24
    62.4800        28
    62.5000        44
    62.5200        38
    62.5400        48
    62.5600        82
    62.5800        76
    62.6000        68
    62.6200        88
    62.6400        80
    62.6600        72
    62.6800        70
    62.7000        56
    62.7200        56
    62.7400        48
    62.7600        38
    62.7800        50
    62.8000        56
    62.8200        52
    62.8400        58
    62.8600        38
    62.8800        52
    62.9000        62
    62.9200        58
    62.9400        44
    62.9600        52
    62.9800        62
    63.0000        52
    63.0200        52
    63.0400        54
    63.0600        76
    63.0800        62
    63.1000        56
    63.1200        40
    63.1400        54
    63.1600        72
    63.1800        86
    63.2000        70
    63.2200       112
    63.2400       128
    63.2600       190
    63.2800       198
    63.3000       196
    63.3200       192
    63.3400       214
    63.3600       194
    63.3800       194
    63.4000       184
    63.4200       164
    63.4400       142
    63.4600       116
    63.4800       120
    63.5000        94
    63.5200       140
    63.5400       102
    63.5600       110
    63.5800       102
    63.6000        80
    63.6200       104
    63.6400        88
    63.6600        94
    63.6800        76
    63.7000       100
    63.7200        64
    63.7400        54
    63.7600        52
    63.7800        48
    63.8000        54
    63.8200        58
    63.8400        50
    63.8600        56
    63.8800        44
    63.9000        54
    63.9200        42
    63.9400        28
    63.9600        30
    63.9800        34
    64.0000        32
    64.0200        30
    64.0400        24
    64.0600        22
    64.0800        36
    64.1000        28
    64.1200        32
    64.1400        32
    64.1600        30
    64.1800        24
    64.2000        30
    64.2200        24
    64.2400        36
    64.2600        36
    64.2800        32
    64.3000        24
    64.3200        30
    64.3400        32
    64.3600        14
    64.3800        30
    64.4000        28
    64.4200        26
    64.4400        28
    64.4600        42
    64.4800        30
    64.5000        26
    64.5200        26
    64.5400        34
    64.5600        38
    64.5800        28
    64.6000        22
    64.6200        28
    64.6400        26
    64.6600        20
    64.6800        30
    64.7000        38
    64.7200        28
    64.7400        30
    64.7600        36
    64.7800        30
    64.8000        34
    64.8200        36
    64.8400        30
    64.8600        30
    64.8800        30
    64.9000        40
    64.9200        18
    64.9400        28
    64.9600        30
    64.9800        32
    65.0000        28
