/////////////////////////////////////////////////////////////////////////////////
/// Profile Data Ascii Dump (XRD)                                             ///
/////////////////////////////////////////////////////////////////////////////////

  Group     : Swayze
  Data      : GDS50A
  File Name : GDS50A.RAW

# Profile Datafile
          comment             = Scapolite grp 
          date & time         = 08-03-27 07:47:40 

# Measurement Condition
    X-ray tube
          target              = Cu 
          voltage             = 40.0 (kV)
          current             = 30.0 (mA)
    Slits
          divergence slit     = 2.00000 (deg) 
          scatter slit        = 2.00000 (deg) 
          receiving slit      = 0.15000 (mm)  
    Scanning
          drive axis          = Theta-2Theta 
          scan range          =    4.000 -   65.000 
          scan mode           = Continuous Scan 
          scan speed          =   2.0000 (deg/min) 
          sampling pitch      =   0.0200 (deg) 
          preset time         =   0.60 (sec) 

# Data      [ Total No. = 3051 ]
  <2Theta>   <   I   >
     4.0000       138
     4.0200       156
     4.0400       190
     4.0600       166
     4.0800       206
     4.1000       154
     4.1200       170
     4.1400       200
     4.1600       168
     4.1800       182
     4.2000       182
     4.2200       186
     4.2400       172
     4.2600       164
     4.2800       180
     4.3000       176
     4.3200       174
     4.3400       158
     4.3600       188
     4.3800       162
     4.4000       168
     4.4200       176
     4.4400       154
     4.4600       162
     4.4800       164
     4.5000       158
     4.5200       142
     4.5400       156
     4.5600       168
     4.5800       132
     4.6000       148
     4.6200       136
     4.6400       170
     4.6600       178
     4.6800       130
     4.7000       168
     4.7200       138
     4.7400       128
     4.7600       132
     4.7800       156
     4.8000       162
     4.8200       144
     4.8400       136
     4.8600       152
     4.8800       166
     4.9000       148
     4.9200       158
     4.9400       124
     4.9600       142
     4.9800       154
     5.0000       158
     5.0200       156
     5.0400       154
     5.0600       144
     5.0800       138
     5.1000       168
     5.1200       140
     5.1400       146
     5.1600       156
     5.1800       162
     5.2000       154
     5.2200       152
     5.2400       184
     5.2600       144
     5.2800       170
     5.3000       146
     5.3200       154
     5.3400       152
     5.3600       196
     5.3800       166
     5.4000       152
     5.4200       180
     5.4400       176
     5.4600       152
     5.4800       160
     5.5000       150
     5.5200       148
     5.5400       122
     5.5600       136
     5.5800       146
     5.6000       162
     5.6200       138
     5.6400       152
     5.6600       160
     5.6800       170
     5.7000       160
     5.7200       164
     5.7400       154
     5.7600       158
     5.7800       140
     5.8000       158
     5.8200       164
     5.8400       152
     5.8600       136
     5.8800       136
     5.9000       150
     5.9200       144
     5.9400       154
     5.9600       168
     5.9800       146
     6.0000       146
     6.0200       156
     6.0400       142
     6.0600       148
     6.0800       158
     6.1000       154
     6.1200       170
     6.1400       174
     6.1600       150
     6.1800       142
     6.2000       146
     6.2200       136
     6.2400       138
     6.2600       128
     6.2800       138
     6.3000       146
     6.3200       126
     6.3400       118
     6.3600       150
     6.3800       146
     6.4000       132
     6.4200       144
     6.4400       132
     6.4600       130
     6.4800       134
     6.5000       112
     6.5200       128
     6.5400       154
     6.5600       110
     6.5800       130
     6.6000       128
     6.6200       106
     6.6400       118
     6.6600       130
     6.6800       130
     6.7000       138
     6.7200       134
     6.7400       130
     6.7600       124
     6.7800       108
     6.8000       128
     6.8200       136
     6.8400       114
     6.8600       120
     6.8800       124
     6.9000       118
     6.9200       120
     6.9400       116
     6.9600       128
     6.9800       116
     7.0000       126
     7.0200       136
     7.0400       120
     7.0600       122
     7.0800       132
     7.1000       118
     7.1200       108
     7.1400       110
     7.1600       102
     7.1800       114
     7.2000       118
     7.2200       114
     7.2400       112
     7.2600       106
     7.2800       118
     7.3000       122
     7.3200       140
     7.3400       118
     7.3600       102
     7.3800       114
     7.4000       112
     7.4200       108
     7.4400       104
     7.4600       114
     7.4800       112
     7.5000       114
     7.5200       110
     7.5400        94
     7.5600        94
     7.5800       100
     7.6000        90
     7.6200       128
     7.6400       126
     7.6600       110
     7.6800       112
     7.7000        84
     7.7200       120
     7.7400        98
     7.7600       108
     7.7800       106
     7.8000       118
     7.8200       128
     7.8400       132
     7.8600       122
     7.8800       124
     7.9000       114
     7.9200       104
     7.9400       100
     7.9600        90
     7.9800       128
     8.0000       110
     8.0200       110
     8.0400       126
     8.0600        86
     8.0800        96
     8.1000        92
     8.1200       100
     8.1400        98
     8.1600       108
     8.1800        98
     8.2000       126
     8.2200       130
     8.2400       112
     8.2600       106
     8.2800       116
     8.3000       116
     8.3200        98
     8.3400        96
     8.3600        96
     8.3800       124
     8.4000       108
     8.4200       104
     8.4400       114
     8.4600       118
     8.4800       114
     8.5000       122
     8.5200       116
     8.5400       106
     8.5600       116
     8.5800       100
     8.6000        98
     8.6200       116
     8.6400       130
     8.6600       108
     8.6800       100
     8.7000       116
     8.7200       100
     8.7400       112
     8.7600       110
     8.7800       110
     8.8000       106
     8.8200       112
     8.8400       114
     8.8600       104
     8.8800       100
     8.9000        94
     8.9200       128
     8.9400       102
     8.9600       116
     8.9800       108
     9.0000        90
     9.0200       108
     9.0400       102
     9.0600       122
     9.0800       112
     9.1000       134
     9.1200       100
     9.1400       130
     9.1600       122
     9.1800       104
     9.2000       112
     9.2200       108
     9.2400       140
     9.2600       116
     9.2800        96
     9.3000        74
     9.3200       106
     9.3400        94
     9.3600       110
     9.3800       110
     9.4000       114
     9.4200       100
     9.4400       102
     9.4600       108
     9.4800        92
     9.5000       112
     9.5200       100
     9.5400       102
     9.5600        94
     9.5800       130
     9.6000       102
     9.6200       122
     9.6400       108
     9.6600       130
     9.6800       132
     9.7000       100
     9.7200       106
     9.7400       102
     9.7600        92
     9.7800       106
     9.8000       126
     9.8200       112
     9.8400       110
     9.8600        86
     9.8800        96
     9.9000       114
     9.9200        90
     9.9400        88
     9.9600       100
     9.9800       116
    10.0000       132
    10.0200       104
    10.0400       118
    10.0600       102
    10.0800       110
    10.1000        98
    10.1200       112
    10.1400        94
    10.1600        96
    10.1800       104
    10.2000       110
    10.2200       142
    10.2400       120
    10.2600       144
    10.2800       152
    10.3000       168
    10.3200       136
    10.3400       136
    10.3600        94
    10.3800        92
    10.4000        92
    10.4200       104
    10.4400        86
    10.4600        82
    10.4800        92
    10.5000        94
    10.5200       106
    10.5400        94
    10.5600        98
    10.5800        88
    10.6000       104
    10.6200        98
    10.6400        82
    10.6600        90
    10.6800        80
    10.7000       114
    10.7200        88
    10.7400        92
    10.7600        76
    10.7800       110
    10.8000       104
    10.8200        72
    10.8400        86
    10.8600        84
    10.8800       108
    10.9000        92
    10.9200        98
    10.9400        86
    10.9600        94
    10.9800        84
    11.0000        96
    11.0200        82
    11.0400        82
    11.0600        90
    11.0800        96
    11.1000        82
    11.1200        90
    11.1400        92
    11.1600        86
    11.1800        78
    11.2000        76
    11.2200        70
    11.2400        96
    11.2600        76
    11.2800        74
    11.3000        82
    11.3200        86
    11.3400        90
    11.3600        84
    11.3800        82
    11.4000        92
    11.4200        78
    11.4400        94
    11.4600        82
    11.4800        78
    11.5000        98
    11.5200        76
    11.5400        92
    11.5600        66
    11.5800        94
    11.6000        72
    11.6200        74
    11.6400        78
    11.6600        96
    11.6800        78
    11.7000        80
    11.7200        98
    11.7400        80
    11.7600        86
    11.7800        70
    11.8000        76
    11.8200        62
    11.8400        84
    11.8600        74
    11.8800        74
    11.9000        72
    11.9200        78
    11.9400        80
    11.9600        80
    11.9800        60
    12.0000        72
    12.0200        98
    12.0400        92
    12.0600        68
    12.0800        88
    12.1000        76
    12.1200        78
    12.1400        70
    12.1600        72
    12.1800        62
    12.2000        68
    12.2200        88
    12.2400        68
    12.2600        66
    12.2800        80
    12.3000        66
    12.3200        78
    12.3400        74
    12.3600        80
    12.3800        68
    12.4000        82
    12.4200        80
    12.4400        62
    12.4600        74
    12.4800        66
    12.5000        90
    12.5200        88
    12.5400        60
    12.5600        72
    12.5800        66
    12.6000        68
    12.6200        78
    12.6400        86
    12.6600        68
    12.6800        82
    12.7000        58
    12.7200        62
    12.7400        72
    12.7600        82
    12.7800        86
    12.8000        78
    12.8200        70
    12.8400        78
    12.8600        80
    12.8800        82
    12.9000        52
    12.9200        74
    12.9400        66
    12.9600        52
    12.9800        90
    13.0000        66
    13.0200        62
    13.0400        66
    13.0600        82
    13.0800        84
    13.1000        68
    13.1200        62
    13.1400        66
    13.1600        70
    13.1800        66
    13.2000        70
    13.2200        80
    13.2400        60
    13.2600        58
    13.2800        60
    13.3000        56
    13.3200        72
    13.3400        60
    13.3600        64
    13.3800        84
    13.4000        76
    13.4200        60
    13.4400        68
    13.4600        68
    13.4800        74
    13.5000        88
    13.5200        94
    13.5400        86
    13.5600        90
    13.5800        68
    13.6000        82
    13.6200        98
    13.6400       118
    13.6600       134
    13.6800       122
    13.7000       114
    13.7200        98
    13.7400        96
    13.7600       104
    13.7800        90
    13.8000        74
    13.8200        74
    13.8400        68
    13.8600        56
    13.8800        78
    13.9000        64
    13.9200        70
    13.9400        62
    13.9600        70
    13.9800        52
    14.0000        72
    14.0200        72
    14.0400        66
    14.0600        54
    14.0800        82
    14.1000        76
    14.1200        80
    14.1400        80
    14.1600        68
    14.1800        62
    14.2000        72
    14.2200        84
    14.2400        66
    14.2600        94
    14.2800        60
    14.3000        86
    14.3200        80
    14.3400        74
    14.3600        86
    14.3800        88
    14.4000        80
    14.4200       112
    14.4400       142
    14.4600       160
    14.4800       218
    14.5000       200
    14.5200       184
    14.5400       216
    14.5600       208
    14.5800       198
    14.6000       192
    14.6200       188
    14.6400       132
    14.6600       108
    14.6800        74
    14.7000        68
    14.7200        66
    14.7400        72
    14.7600        54
    14.7800        60
    14.8000        46
    14.8200        52
    14.8400        56
    14.8600        58
    14.8800        56
    14.9000        76
    14.9200        60
    14.9400        66
    14.9600        62
    14.9800        64
    15.0000        52
    15.0200        56
    15.0400        44
    15.0600        56
    15.0800        60
    15.1000        60
    15.1200        60
    15.1400        62
    15.1600        74
    15.1800        62
    15.2000        48
    15.2200        62
    15.2400        56
    15.2600        42
    15.2800        42
    15.3000        62
    15.3200        68
    15.3400        68
    15.3600        46
    15.3800        54
    15.4000        62
    15.4200        36
    15.4400        62
    15.4600        50
    15.4800        62
    15.5000        62
    15.5200        66
    15.5400        42
    15.5600        56
    15.5800        56
    15.6000        66
    15.6200        62
    15.6400        56
    15.6600        50
    15.6800        68
    15.7000        40
    15.7200        62
    15.7400        54
    15.7600        54
    15.7800        74
    15.8000        64
    15.8200        58
    15.8400        64
    15.8600        54
    15.8800        54
    15.9000        52
    15.9200        44
    15.9400        46
    15.9600        50
    15.9800        66
    16.0000        48
    16.0200        46
    16.0400        56
    16.0600        66
    16.0800        44
    16.1000        54
    16.1200        56
    16.1400        52
    16.1600        62
    16.1800        52
    16.2000        54
    16.2200        56
    16.2400        50
    16.2600        64
    16.2800        72
    16.3000        44
    16.3200        50
    16.3400        48
    16.3600        54
    16.3800        56
    16.4000        46
    16.4200        64
    16.4400        46
    16.4600        58
    16.4800        50
    16.5000        60
    16.5200        66
    16.5400        54
    16.5600        78
    16.5800        48
    16.6000        54
    16.6200        52
    16.6400        40
    16.6600        40
    16.6800        58
    16.7000        46
    16.7200        52
    16.7400        56
    16.7600        60
    16.7800        56
    16.8000        44
    16.8200        48
    16.8400        50
    16.8600        64
    16.8800        40
    16.9000        60
    16.9200        64
    16.9400        50
    16.9600        46
    16.9800        54
    17.0000        56
    17.0200        56
    17.0400        52
    17.0600        58
    17.0800        66
    17.1000        50
    17.1200        50
    17.1400        50
    17.1600        56
    17.1800        58
    17.2000        56
    17.2200        56
    17.2400        44
    17.2600        62
    17.2800        46
    17.3000        50
    17.3200        50
    17.3400        54
    17.3600        38
    17.3800        60
    17.4000        50
    17.4200        52
    17.4400        66
    17.4600        40
    17.4800        46
    17.5000        36
    17.5200        54
    17.5400        56
    17.5600        42
    17.5800        56
    17.6000        50
    17.6200        44
    17.6400        54
    17.6600        44
    17.6800        56
    17.7000        50
    17.7200        50
    17.7400        32
    17.7600        56
    17.7800        56
    17.8000        68
    17.8200        38
    17.8400        52
    17.8600        52
    17.8800        50
    17.9000        48
    17.9200        40
    17.9400        58
    17.9600        52
    17.9800        42
    18.0000        58
    18.0200        48
    18.0400        36
    18.0600        42
    18.0800        46
    18.1000        62
    18.1200        56
    18.1400        50
    18.1600        50
    18.1800        50
    18.2000        42
    18.2200        54
    18.2400        52
    18.2600        58
    18.2800        48
    18.3000        48
    18.3200        30
    18.3400        40
    18.3600        42
    18.3800        46
    18.4000        56
    18.4200        48
    18.4400        54
    18.4600        56
    18.4800        56
    18.5000        48
    18.5200        42
    18.5400        50
    18.5600        54
    18.5800        50
    18.6000        54
    18.6200        62
    18.6400        74
    18.6600        58
    18.6800        56
    18.7000        64
    18.7200        78
    18.7400        54
    18.7600        54
    18.7800        56
    18.8000        54
    18.8200        58
    18.8400        46
    18.8600        50
    18.8800        42
    18.9000        42
    18.9200        44
    18.9400        44
    18.9600        48
    18.9800        44
    19.0000        44
    19.0200        54
    19.0400        46
    19.0600        46
    19.0800        62
    19.1000        40
    19.1200        58
    19.1400        48
    19.1600        42
    19.1800        42
    19.2000        46
    19.2200        60
    19.2400        46
    19.2600        44
    19.2800        48
    19.3000        64
    19.3200        54
    19.3400        52
    19.3600        54
    19.3800        44
    19.4000        38
    19.4200        44
    19.4400        46
    19.4600        46
    19.4800        28
    19.5000        46
    19.5200        38
    19.5400        48
    19.5600        44
    19.5800        40
    19.6000        54
    19.6200        40
    19.6400        60
    19.6600        42
    19.6800        44
    19.7000        42
    19.7200        60
    19.7400        50
    19.7600        48
    19.7800        48
    19.8000        46
    19.8200        44
    19.8400        50
    19.8600        52
    19.8800        46
    19.9000        44
    19.9200        62
    19.9400        64
    19.9600        74
    19.9800        96
    20.0000        90
    20.0200        96
    20.0400        88
    20.0600        84
    20.0800       100
    20.1000       114
    20.1200        94
    20.1400        80
    20.1600        74
    20.1800        56
    20.2000        52
    20.2200        48
    20.2400        52
    20.2600        50
    20.2800        50
    20.3000        48
    20.3200        42
    20.3400        42
    20.3600        48
    20.3800        68
    20.4000        46
    20.4200        36
    20.4400        46
    20.4600        54
    20.4800        50
    20.5000        54
    20.5200        50
    20.5400        70
    20.5600        58
    20.5800        72
    20.6000        74
    20.6200        74
    20.6400        96
    20.6600        82
    20.6800        82
    20.7000        76
    20.7200        84
    20.7400        68
    20.7600        60
    20.7800        50
    20.8000        46
    20.8200        56
    20.8400        50
    20.8600        56
    20.8800        50
    20.9000        40
    20.9200        44
    20.9400        50
    20.9600        60
    20.9800        50
    21.0000        48
    21.0200        64
    21.0400        46
    21.0600        58
    21.0800        42
    21.1000        46
    21.1200        46
    21.1400        40
    21.1600        38
    21.1800        36
    21.2000        36
    21.2200        44
    21.2400        52
    21.2600        54
    21.2800        42
    21.3000        50
    21.3200        26
    21.3400        40
    21.3600        52
    21.3800        36
    21.4000        44
    21.4200        36
    21.4400        36
    21.4600        36
    21.4800        40
    21.5000        48
    21.5200        36
    21.5400        54
    21.5600        36
    21.5800        42
    21.6000        42
    21.6200        44
    21.6400        66
    21.6600        42
    21.6800        32
    21.7000        34
    21.7200        36
    21.7400        50
    21.7600        46
    21.7800        46
    21.8000        34
    21.8200        40
    21.8400        46
    21.8600        54
    21.8800        50
    21.9000        50
    21.9200        36
    21.9400        38
    21.9600        44
    21.9800        48
    22.0000        46
    22.0200        52
    22.0400        28
    22.0600        52
    22.0800        48
    22.1000        48
    22.1200        44
    22.1400        44
    22.1600        54
    22.1800        54
    22.2000        32
    22.2200        48
    22.2400        48
    22.2600        48
    22.2800        40
    22.3000        54
    22.3200        48
    22.3400        44
    22.3600        52
    22.3800        40
    22.4000        56
    22.4200        40
    22.4400        46
    22.4600        42
    22.4800        38
    22.5000        44
    22.5200        50
    22.5400        54
    22.5600        34
    22.5800        46
    22.6000        54
    22.6200        34
    22.6400        42
    22.6600        58
    22.6800        50
    22.7000        56
    22.7200        50
    22.7400        50
    22.7600        58
    22.7800        60
    22.8000        72
    22.8200        66
    22.8400        78
    22.8600        80
    22.8800        80
    22.9000       110
    22.9200       110
    22.9400       120
    22.9600       140
    22.9800       146
    23.0000       170
    23.0200       220
    23.0400       314
    23.0600       346
    23.0800       356
    23.1000       466
    23.1200       460
    23.1400       444
    23.1600       458
    23.1800       412
    23.2000       414
    23.2200       332
    23.2400       248
    23.2600       224
    23.2800       136
    23.3000        98
    23.3200        80
    23.3400        72
    23.3600        78
    23.3800        72
    23.4000        54
    23.4200        42
    23.4400        54
    23.4600        60
    23.4800        52
    23.5000        38
    23.5200        50
    23.5400        48
    23.5600        42
    23.5800        56
    23.6000        50
    23.6200        54
    23.6400        64
    23.6600        62
    23.6800        62
    23.7000        66
    23.7200        58
    23.7400        64
    23.7600        66
    23.7800        68
    23.8000        62
    23.8200        52
    23.8400        70
    23.8600        58
    23.8800        46
    23.9000        44
    23.9200        46
    23.9400        42
    23.9600        46
    23.9800        42
    24.0000        50
    24.0200        36
    24.0400        48
    24.0600        50
    24.0800        50
    24.1000        46
    24.1200        42
    24.1400        64
    24.1600        40
    24.1800        40
    24.2000        38
    24.2200        44
    24.2400        52
    24.2600        38
    24.2800        40
    24.3000        30
    24.3200        56
    24.3400        46
    24.3600        60
    24.3800        64
    24.4000        56
    24.4200        50
    24.4400        58
    24.4600        70
    24.4800        48
    24.5000        66
    24.5200        72
    24.5400        66
    24.5600        56
    24.5800        48
    24.6000        70
    24.6200        56
    24.6400        70
    24.6600        80
    24.6800        96
    24.7000        84
    24.7200       128
    24.7400       134
    24.7600       154
    24.7800       176
    24.8000       166
    24.8200       182
    24.8400       284
    24.8600       322
    24.8800       376
    24.9000       466
    24.9200       466
    24.9400       416
    24.9600       300
    24.9800       268
    25.0000       220
    25.0200       136
    25.0400       120
    25.0600        78
    25.0800        86
    25.1000        72
    25.1200        66
    25.1400        90
    25.1600        84
    25.1800        96
    25.2000        70
    25.2200       104
    25.2400       102
    25.2600       112
    25.2800       154
    25.3000       168
    25.3200       152
    25.3400       244
    25.3600       278
    25.3800       332
    25.4000       444
    25.4200       474
    25.4400       610
    25.4600       668
    25.4800       850
    25.5000      1028
    25.5200      1204
    25.5400      1466
    25.5600      2048
    25.5800      3166
    25.6000      3544
    25.6200      2836
    25.6400      2546
    25.6600      2170
    25.6800      1470
    25.7000       918
    25.7200       550
    25.7400       272
    25.7600       158
    25.7800       128
    25.8000       122
    25.8200       118
    25.8400        90
    25.8600        90
    25.8800        88
    25.9000        86
    25.9200        80
    25.9400        80
    25.9600        66
    25.9800        62
    26.0000        70
    26.0200        56
    26.0400        66
    26.0600        70
    26.0800        64
    26.1000        68
    26.1200        50
    26.1400        70
    26.1600        40
    26.1800        48
    26.2000        42
    26.2200        46
    26.2400        48
    26.2600        44
    26.2800        44
    26.3000        48
    26.3200        32
    26.3400        36
    26.3600        50
    26.3800        40
    26.4000        38
    26.4200        50
    26.4400        36
    26.4600        40
    26.4800        44
    26.5000        40
    26.5200        44
    26.5400        40
    26.5600        62
    26.5800        38
    26.6000        26
    26.6200        50
    26.6400        56
    26.6600        40
    26.6800        46
    26.7000        34
    26.7200        34
    26.7400        42
    26.7600        38
    26.7800        44
    26.8000        30
    26.8200        44
    26.8400        44
    26.8600        46
    26.8800        26
    26.9000        44
    26.9200        32
    26.9400        42
    26.9600        50
    26.9800        42
    27.0000        36
    27.0200        44
    27.0400        34
    27.0600        36
    27.0800        36
    27.1000        44
    27.1200        38
    27.1400        30
    27.1600        52
    27.1800        38
    27.2000        22
    27.2200        30
    27.2400        32
    27.2600        38
    27.2800        30
    27.3000        22
    27.3200        44
    27.3400        32
    27.3600        52
    27.3800        40
    27.4000        30
    27.4200        52
    27.4400        46
    27.4600        46
    27.4800        44
    27.5000        46
    27.5200        32
    27.5400        36
    27.5600        42
    27.5800        54
    27.6000        52
    27.6200        60
    27.6400        54
    27.6600        46
    27.6800        60
    27.7000        56
    27.7200        56
    27.7400        42
    27.7600        40
    27.7800        38
    27.8000        34
    27.8200        34
    27.8400        44
    27.8600        48
    27.8800        36
    27.9000        44
    27.9200        36
    27.9400        40
    27.9600        46
    27.9800        44
    28.0000        36
    28.0200        48
    28.0400        34
    28.0600        36
    28.0800        44
    28.1000        34
    28.1200        40
    28.1400        46
    28.1600        44
    28.1800        44
    28.2000        40
    28.2200        36
    28.2400        44
    28.2600        42
    28.2800        48
    28.3000        46
    28.3200        34
    28.3400        40
    28.3600        42
    28.3800        50
    28.4000        44
    28.4200        46
    28.4400        40
    28.4600        52
    28.4800        44
    28.5000        48
    28.5200        58
    28.5400        46
    28.5600        62
    28.5800        84
    28.6000        72
    28.6200        72
    28.6400       108
    28.6600       194
    28.6800       326
    28.7000       428
    28.7200       422
    28.7400       364
    28.7600       282
    28.7800       308
    28.8000       320
    28.8200       284
    28.8400       290
    28.8600       336
    28.8800       490
    28.9000       618
    28.9200       726
    28.9400       928
    28.9600      1080
    28.9800      1064
    29.0000      1130
    29.0200      1246
    29.0400      1110
    29.0600       970
    29.0800       718
    29.1000       580
    29.1200       476
    29.1400       340
    29.1600       186
    29.1800       172
    29.2000       126
    29.2200       158
    29.2400       162
    29.2600       190
    29.2800       224
    29.3000       260
    29.3200       260
    29.3400       346
    29.3600       452
    29.3800       532
    29.4000       506
    29.4200       594
    29.4400       636
    29.4600       706
    29.4800       700
    29.5000       652
    29.5200       500
    29.5400       396
    29.5600       314
    29.5800       258
    29.6000       146
    29.6200       124
    29.6400        74
    29.6600        64
    29.6800        58
    29.7000        60
    29.7200        50
    29.7400        52
    29.7600        34
    29.7800        46
    29.8000        44
    29.8200        34
    29.8400        44
    29.8600        34
    29.8800        44
    29.9000        36
    29.9200        32
    29.9400        52
    29.9600        26
    29.9800        26
    30.0000        40
    30.0200        34
    30.0400        34
    30.0600        30
    30.0800        38
    30.1000        38
    30.1200        32
    30.1400        34
    30.1600        40
    30.1800        26
    30.2000        46
    30.2200        44
    30.2400        30
    30.2600        26
    30.2800        42
    30.3000        32
    30.3200        32
    30.3400        28
    30.3600        32
    30.3800        48
    30.4000        28
    30.4200        28
    30.4400        32
    30.4600        34
    30.4800        36
    30.5000        44
    30.5200        46
    30.5400        34
    30.5600        24
    30.5800        42
    30.6000        30
    30.6200        42
    30.6400        42
    30.6600        28
    30.6800        34
    30.7000        46
    30.7200        38
    30.7400        42
    30.7600        38
    30.7800        30
    30.8000        40
    30.8200        30
    30.8400        30
    30.8600        30
    30.8800        26
    30.9000        44
    30.9200        30
    30.9400        38
    30.9600        38
    30.9800        32
    31.0000        28
    31.0200        32
    31.0400        40
    31.0600        52
    31.0800        46
    31.1000        48
    31.1200        44
    31.1400        62
    31.1600        92
    31.1800       112
    31.2000       126
    31.2200        96
    31.2400       166
    31.2600       206
    31.2800       222
    31.3000       186
    31.3200       138
    31.3400       158
    31.3600       150
    31.3800       142
    31.4000       118
    31.4200       116
    31.4400       114
    31.4600        90
    31.4800        94
    31.5000        84
    31.5200        84
    31.5400        86
    31.5600        60
    31.5800        48
    31.6000        38
    31.6200        40
    31.6400        46
    31.6600        42
    31.6800        48
    31.7000        38
    31.7200        38
    31.7400        42
    31.7600        38
    31.7800        32
    31.8000        46
    31.8200        36
    31.8400        36
    31.8600        26
    31.8800        28
    31.9000        46
    31.9200        38
    31.9400        24
    31.9600        34
    31.9800        38
    32.0000        34
    32.0200        40
    32.0400        30
    32.0600        34
    32.0800        22
    32.1000        34
    32.1200        36
    32.1400        40
    32.1600        34
    32.1800        22
    32.2000        42
    32.2200        44
    32.2400        38
    32.2600        46
    32.2800        60
    32.3000        42
    32.3200        52
    32.3400        40
    32.3600        48
    32.3800        56
    32.4000        58
    32.4200        62
    32.4400        66
    32.4600        84
    32.4800       116
    32.5000       100
    32.5200       136
    32.5400       162
    32.5600       150
    32.5800       220
    32.6000       334
    32.6200       326
    32.6400       334
    32.6600       312
    32.6800       344
    32.7000       258
    32.7200       206
    32.7400       194
    32.7600       158
    32.7800       162
    32.8000       126
    32.8200       128
    32.8400       106
    32.8600       132
    32.8800       196
    32.9000       186
    32.9200       178
    32.9400       200
    32.9600       266
    32.9800       298
    33.0000       280
    33.0200       330
    33.0400       356
    33.0600       404
    33.0800       458
    33.1000       526
    33.1200       636
    33.1400       774
    33.1600       884
    33.1800       916
    33.2000       794
    33.2200       608
    33.2400       520
    33.2600       448
    33.2800       346
    33.3000       224
    33.3200       148
    33.3400       102
    33.3600        62
    33.3800        54
    33.4000        58
    33.4200        60
    33.4400        46
    33.4600        44
    33.4800        46
    33.5000        44
    33.5200        44
    33.5400        42
    33.5600        32
    33.5800        46
    33.6000        44
    33.6200        36
    33.6400        44
    33.6600        36
    33.6800        46
    33.7000        36
    33.7200        34
    33.7400        36
    33.7600        24
    33.7800        24
    33.8000        28
    33.8200        46
    33.8400        38
    33.8600        46
    33.8800        26
    33.9000        42
    33.9200        32
    33.9400        30
    33.9600        26
    33.9800        44
    34.0000        26
    34.0200        40
    34.0400        34
    34.0600        40
    34.0800        22
    34.1000        44
    34.1200        38
    34.1400        24
    34.1600        34
    34.1800        24
    34.2000        24
    34.2200        32
    34.2400        26
    34.2600        32
    34.2800        32
    34.3000        36
    34.3200        32
    34.3400        28
    34.3600        28
    34.3800        34
    34.4000        46
    34.4200        40
    34.4400        34
    34.4600        26
    34.4800        34
    34.5000        30
    34.5200        30
    34.5400        30
    34.5600        40
    34.5800        36
    34.6000        32
    34.6200        34
    34.6400        20
    34.6600        32
    34.6800        34
    34.7000        24
    34.7200        40
    34.7400        32
    34.7600        40
    34.7800        34
    34.8000        30
    34.8200        42
    34.8400        30
    34.8600        24
    34.8800        30
    34.9000        26
    34.9200        36
    34.9400        30
    34.9600        32
    34.9800        40
    35.0000        26
    35.0200        46
    35.0400        38
    35.0600        36
    35.0800        32
    35.1000        42
    35.1200        52
    35.1400        42
    35.1600        32
    35.1800        30
    35.2000        38
    35.2200        24
    35.2400        40
    35.2600        24
    35.2800        28
    35.3000        36
    35.3200        20
    35.3400        38
    35.3600        36
    35.3800        32
    35.4000        38
    35.4200        32
    35.4400        18
    35.4600        28
    35.4800        26
    35.5000        32
    35.5200        28
    35.5400        38
    35.5600        38
    35.5800        22
    35.6000        38
    35.6200        32
    35.6400        34
    35.6600        48
    35.6800        42
    35.7000        44
    35.7200        26
    35.7400        22
    35.7600        36
    35.7800        28
    35.8000        34
    35.8200        28
    35.8400        32
    35.8600        34
    35.8800        20
    35.9000        22
    35.9200        22
    35.9400        44
    35.9600        28
    35.9800        22
    36.0000        32
    36.0200        28
    36.0400        24
    36.0600        36
    36.0800        28
    36.1000        36
    36.1200        36
    36.1400        40
    36.1600        34
    36.1800        28
    36.2000        42
    36.2200        36
    36.2400        44
    36.2600        36
    36.2800        24
    36.3000        28
    36.3200        32
    36.3400        28
    36.3600        28
    36.3800        42
    36.4000        32
    36.4200        26
    36.4400        28
    36.4600        22
    36.4800        38
    36.5000        36
    36.5200        44
    36.5400        28
    36.5600        24
    36.5800        30
    36.6000        30
    36.6200        36
    36.6400        22
    36.6600        32
    36.6800        28
    36.7000        30
    36.7200        22
    36.7400        26
    36.7600        40
    36.7800        38
    36.8000        28
    36.8200        34
    36.8400        30
    36.8600        28
    36.8800        26
    36.9000        42
    36.9200        46
    36.9400        38
    36.9600        38
    36.9800        48
    37.0000        38
    37.0200        28
    37.0400        34
    37.0600        36
    37.0800        30
    37.1000        42
    37.1200        24
    37.1400        36
    37.1600        38
    37.1800        24
    37.2000        38
    37.2200        40
    37.2400        26
    37.2600        30
    37.2800        36
    37.3000        22
    37.3200        18
    37.3400        34
    37.3600        34
    37.3800        28
    37.4000        32
    37.4200        34
    37.4400        30
    37.4600        36
    37.4800        40
    37.5000        30
    37.5200        36
    37.5400        28
    37.5600        42
    37.5800        42
    37.6000        38
    37.6200        34
    37.6400        30
    37.6600        44
    37.6800        38
    37.7000        56
    37.7200        42
    37.7400        60
    37.7600        54
    37.7800        66
    37.8000        78
    37.8200        74
    37.8400        76
    37.8600        84
    37.8800        72
    37.9000        70
    37.9200        54
    37.9400        56
    37.9600        40
    37.9800        54
    38.0000        50
    38.0200        40
    38.0400        50
    38.0600        46
    38.0800        34
    38.1000        38
    38.1200        26
    38.1400        34
    38.1600        36
    38.1800        34
    38.2000        30
    38.2200        32
    38.2400        44
    38.2600        24
    38.2800        36
    38.3000        24
    38.3200        40
    38.3400        26
    38.3600        26
    38.3800        32
    38.4000        24
    38.4200        30
    38.4400        34
    38.4600        40
    38.4800        34
    38.5000        30
    38.5200        32
    38.5400        28
    38.5600        42
    38.5800        50
    38.6000        34
    38.6200        38
    38.6400        50
    38.6600        44
    38.6800        36
    38.7000        44
    38.7200        58
    38.7400        50
    38.7600        48
    38.7800        56
    38.8000        68
    38.8200        68
    38.8400        80
    38.8600        84
    38.8800       150
    38.9000       136
    38.9200       140
    38.9400       214
    38.9600       224
    38.9800       196
    39.0000       210
    39.0200       180
    39.0400       188
    39.0600       208
    39.0800       140
    39.1000       128
    39.1200       104
    39.1400        82
    39.1600       104
    39.1800        74
    39.2000        66
    39.2200        60
    39.2400        52
    39.2600        48
    39.2800        58
    39.3000        46
    39.3200        46
    39.3400        42
    39.3600        60
    39.3800        60
    39.4000        86
    39.4200        80
    39.4400        70
    39.4600        80
    39.4800        54
    39.5000        50
    39.5200        58
    39.5400        68
    39.5600        48
    39.5800        50
    39.6000        50
    39.6200        26
    39.6400        34
    39.6600        28
    39.6800        38
    39.7000        36
    39.7200        38
    39.7400        36
    39.7600        30
    39.7800        26
    39.8000        32
    39.8200        38
    39.8400        26
    39.8600        22
    39.8800        28
    39.9000        36
    39.9200        34
    39.9400        24
    39.9600        34
    39.9800        24
    40.0000        24
    40.0200        34
    40.0400        26
    40.0600        42
    40.0800        30
    40.1000        32
    40.1200        46
    40.1400        30
    40.1600        44
    40.1800        28
    40.2000        36
    40.2200        26
    40.2400        38
    40.2600        26
    40.2800        24
    40.3000        38
    40.3200        28
    40.3400        30
    40.3600        32
    40.3800        32
    40.4000        40
    40.4200        30
    40.4400        36
    40.4600        26
    40.4800        36
    40.5000        20
    40.5200        40
    40.5400        28
    40.5600        42
    40.5800        30
    40.6000        34
    40.6200        20
    40.6400        40
    40.6600        30
    40.6800        40
    40.7000        42
    40.7200        46
    40.7400        48
    40.7600        44
    40.7800        74
    40.8000        66
    40.8200        96
    40.8400        82
    40.8600        98
    40.8800        86
    40.9000        76
    40.9200        86
    40.9400        72
    40.9600        58
    40.9800        66
    41.0000        46
    41.0200        46
    41.0400        44
    41.0600        42
    41.0800        46
    41.1000        50
    41.1200        42
    41.1400        26
    41.1600        28
    41.1800        30
    41.2000        42
    41.2200        36
    41.2400        38
    41.2600        32
    41.2800        30
    41.3000        22
    41.3200        32
    41.3400        34
    41.3600        42
    41.3800        34
    41.4000        36
    41.4200        48
    41.4400        34
    41.4600        28
    41.4800        32
    41.5000        26
    41.5200        26
    41.5400        34
    41.5600        54
    41.5800        44
    41.6000        42
    41.6200        38
    41.6400        46
    41.6600        62
    41.6800        52
    41.7000        62
    41.7200        82
    41.7400        82
    41.7600       100
    41.7800       116
    41.8000       144
    41.8200       206
    41.8400       188
    41.8600       192
    41.8800       200
    41.9000       176
    41.9200       172
    41.9400       180
    41.9600       204
    41.9800       250
    42.0000       248
    42.0200       262
    42.0400       298
    42.0600       292
    42.0800       278
    42.1000       276
    42.1200       260
    42.1400       234
    42.1600       202
    42.1800       182
    42.2000       192
    42.2200       136
    42.2400       102
    42.2600        92
    42.2800        62
    42.3000        70
    42.3200        52
    42.3400        62
    42.3600        44
    42.3800        40
    42.4000        38
    42.4200        42
    42.4400        28
    42.4600        36
    42.4800        44
    42.5000        40
    42.5200        32
    42.5400        36
    42.5600        30
    42.5800        34
    42.6000        40
    42.6200        40
    42.6400        38
    42.6600        40
    42.6800        32
    42.7000        32
    42.7200        32
    42.7400        32
    42.7600        32
    42.7800        26
    42.8000        30
    42.8200        26
    42.8400        42
    42.8600        28
    42.8800        54
    42.9000        38
    42.9200        30
    42.9400        26
    42.9600        38
    42.9800        36
    43.0000        34
    43.0200        32
    43.0400        34
    43.0600        32
    43.0800        32
    43.1000        32
    43.1200        28
    43.1400        32
    43.1600        36
    43.1800        44
    43.2000        38
    43.2200        28
    43.2400        38
    43.2600        34
    43.2800        26
    43.3000        32
    43.3200        40
    43.3400        34
    43.3600        42
    43.3800        40
    43.4000        46
    43.4200        54
    43.4400        70
    43.4600        76
    43.4800       100
    43.5000       114
    43.5200       100
    43.5400       120
    43.5600        88
    43.5800        90
    43.6000        98
    43.6200        86
    43.6400        76
    43.6600        74
    43.6800        44
    43.7000        52
    43.7200        38
    43.7400        42
    43.7600        28
    43.7800        42
    43.8000        38
    43.8200        34
    43.8400        46
    43.8600        24
    43.8800        36
    43.9000        30
    43.9200        22
    43.9400        28
    43.9600        34
    43.9800        24
    44.0000        24
    44.0200        28
    44.0400        34
    44.0600        38
    44.0800        24
    44.1000        34
    44.1200        26
    44.1400        28
    44.1600        40
    44.1800        40
    44.2000        34
    44.2200        40
    44.2400        30
    44.2600        36
    44.2800        34
    44.3000        26
    44.3200        36
    44.3400        36
    44.3600        42
    44.3800        30
    44.4000        42
    44.4200        40
    44.4400        40
    44.4600        36
    44.4800        36
    44.5000        44
    44.5200        42
    44.5400        36
    44.5600        46
    44.5800        46
    44.6000        46
    44.6200        54
    44.6400        68
    44.6600        80
    44.6800       120
    44.7000       102
    44.7200       138
    44.7400       166
    44.7600       222
    44.7800       204
    44.8000       232
    44.8200       210
    44.8400       198
    44.8600       184
    44.8800       184
    44.9000       166
    44.9200       200
    44.9400       188
    44.9600       180
    44.9800       166
    45.0000       168
    45.0200       146
    45.0400       108
    45.0600        88
    45.0800        80
    45.1000        84
    45.1200       102
    45.1400        54
    45.1600        56
    45.1800        50
    45.2000        56
    45.2200        40
    45.2400        44
    45.2600        32
    45.2800        36
    45.3000        30
    45.3200        34
    45.3400        34
    45.3600        34
    45.3800        26
    45.4000        32
    45.4200        26
    45.4400        30
    45.4600        30
    45.4800        38
    45.5000        38
    45.5200        34
    45.5400        36
    45.5600        40
    45.5800        24
    45.6000        42
    45.6200        42
    45.6400        38
    45.6600        42
    45.6800        24
    45.7000        48
    45.7200        28
    45.7400        36
    45.7600        28
    45.7800        26
    45.8000        38
    45.8200        24
    45.8400        38
    45.8600        30
    45.8800        42
    45.9000        42
    45.9200        36
    45.9400        30
    45.9600        34
    45.9800        32
    46.0000        32
    46.0200        28
    46.0400        42
    46.0600        36
    46.0800        32
    46.1000        30
    46.1200        24
    46.1400        38
    46.1600        34
    46.1800        24
    46.2000        28
    46.2200        28
    46.2400        34
    46.2600        36
    46.2800        24
    46.3000        28
    46.3200        36
    46.3400        44
    46.3600        36
    46.3800        32
    46.4000        26
    46.4200        34
    46.4400        36
    46.4600        28
    46.4800        32
    46.5000        32
    46.5200        46
    46.5400        24
    46.5600        38
    46.5800        38
    46.6000        38
    46.6200        30
    46.6400        38
    46.6600        34
    46.6800        48
    46.7000        54
    46.7200        48
    46.7400        50
    46.7600        46
    46.7800        50
    46.8000        58
    46.8200        42
    46.8400        48
    46.8600        58
    46.8800        40
    46.9000        44
    46.9200        62
    46.9400        52
    46.9600        44
    46.9800        68
    47.0000        76
    47.0200        86
    47.0400       138
    47.0600       198
    47.0800       226
    47.1000       304
    47.1200       266
    47.1400       286
    47.1600       278
    47.1800       284
    47.2000       288
    47.2200       310
    47.2400       248
    47.2600       338
    47.2800       308
    47.3000       360
    47.3200       398
    47.3400       482
    47.3600       678
    47.3800       654
    47.4000       554
    47.4200       508
    47.4400       434
    47.4600       404
    47.4800       460
    47.5000       466
    47.5200       324
    47.5400       268
    47.5600       206
    47.5800       174
    47.6000       144
    47.6200       110
    47.6400       102
    47.6600       102
    47.6800       100
    47.7000       106
    47.7200       102
    47.7400       110
    47.7600       172
    47.7800       306
    47.8000       410
    47.8200       384
    47.8400       414
    47.8600       380
    47.8800       268
    47.9000       280
    47.9200       282
    47.9400       218
    47.9600       222
    47.9800       206
    48.0000       168
    48.0200       118
    48.0400        78
    48.0600        60
    48.0800        50
    48.1000        54
    48.1200        46
    48.1400        26
    48.1600        36
    48.1800        36
    48.2000        38
    48.2200        32
    48.2400        30
    48.2600        42
    48.2800        36
    48.3000        30
    48.3200        32
    48.3400        40
    48.3600        32
    48.3800        32
    48.4000        50
    48.4200        48
    48.4400        32
    48.4600        42
    48.4800        40
    48.5000        38
    48.5200        32
    48.5400        32
    48.5600        42
    48.5800        36
    48.6000        20
    48.6200        34
    48.6400        30
    48.6600        36
    48.6800        34
    48.7000        34
    48.7200        26
    48.7400        36
    48.7600        28
    48.7800        22
    48.8000        34
    48.8200        32
    48.8400        30
    48.8600        26
    48.8800        42
    48.9000        30
    48.9200        26
    48.9400        30
    48.9600        36
    48.9800        30
    49.0000        30
    49.0200        40
    49.0400        48
    49.0600        28
    49.0800        28
    49.1000        38
    49.1200        32
    49.1400        26
    49.1600        32
    49.1800        40
    49.2000        40
    49.2200        28
    49.2400        36
    49.2600        26
    49.2800        34
    49.3000        26
    49.3200        38
    49.3400        32
    49.3600        28
    49.3800        36
    49.4000        40
    49.4200        24
    49.4400        28
    49.4600        28
    49.4800        36
    49.5000        44
    49.5200        58
    49.5400        42
    49.5600        76
    49.5800        90
    49.6000        82
    49.6200        68
    49.6400        70
    49.6600        56
    49.6800        64
    49.7000        74
    49.7200        74
    49.7400        68
    49.7600        68
    49.7800        58
    49.8000        54
    49.8200        44
    49.8400        44
    49.8600        50
    49.8800        58
    49.9000        58
    49.9200        68
    49.9400        96
    49.9600        98
    49.9800       168
    50.0000       172
    50.0200       146
    50.0400       124
    50.0600       108
    50.0800        94
    50.1000        90
    50.1200        98
    50.1400        98
    50.1600        78
    50.1800        78
    50.2000        58
    50.2200        48
    50.2400        32
    50.2600        46
    50.2800        26
    50.3000        34
    50.3200        34
    50.3400        34
    50.3600        34
    50.3800        40
    50.4000        36
    50.4200        38
    50.4400        28
    50.4600        28
    50.4800        34
    50.5000        48
    50.5200        30
    50.5400        22
    50.5600        38
    50.5800        26
    50.6000        28
    50.6200        28
    50.6400        36
    50.6600        28
    50.6800        30
    50.7000        34
    50.7200        22
    50.7400        40
    50.7600        26
    50.7800        36
    50.8000        28
    50.8200        30
    50.8400        24
    50.8600        28
    50.8800        26
    50.9000        36
    50.9200        36
    50.9400        34
    50.9600        28
    50.9800        32
    51.0000        26
    51.0200        32
    51.0400        40
    51.0600        42
    51.0800        34
    51.1000        48
    51.1200        24
    51.1400        34
    51.1600        32
    51.1800        42
    51.2000        48
    51.2200        40
    51.2400        62
    51.2600        42
    51.2800        32
    51.3000        38
    51.3200        38
    51.3400        34
    51.3600        36
    51.3800        36
    51.4000        32
    51.4200        28
    51.4400        36
    51.4600        42
    51.4800        30
    51.5000        36
    51.5200        22
    51.5400        24
    51.5600        32
    51.5800        28
    51.6000        30
    51.6200        26
    51.6400        30
    51.6600        26
    51.6800        28
    51.7000        30
    51.7200        28
    51.7400        20
    51.7600        32
    51.7800        34
    51.8000        34
    51.8200        26
    51.8400        44
    51.8600        46
    51.8800        34
    51.9000        56
    51.9200        50
    51.9400        50
    51.9600        72
    51.9800        88
    52.0000       116
    52.0200       130
    52.0400       114
    52.0600       132
    52.0800       102
    52.1000        76
    52.1200        86
    52.1400        90
    52.1600       118
    52.1800       118
    52.2000       116
    52.2200       106
    52.2400       108
    52.2600        94
    52.2800        72
    52.3000        76
    52.3200        68
    52.3400        62
    52.3600        58
    52.3800        60
    52.4000        46
    52.4200        50
    52.4400        40
    52.4600        30
    52.4800        44
    52.5000        26
    52.5200        20
    52.5400        28
    52.5600        32
    52.5800        20
    52.6000        32
    52.6200        44
    52.6400        32
    52.6600        42
    52.6800        36
    52.7000        36
    52.7200        46
    52.7400        26
    52.7600        34
    52.7800        24
    52.8000        36
    52.8200        38
    52.8400        30
    52.8600        32
    52.8800        30
    52.9000        36
    52.9200        26
    52.9400        36
    52.9600        38
    52.9800        34
    53.0000        34
    53.0200        28
    53.0400        32
    53.0600        24
    53.0800        30
    53.1000        42
    53.1200        30
    53.1400        34
    53.1600        32
    53.1800        36
    53.2000        40
    53.2200        42
    53.2400        38
    53.2600        50
    53.2800        42
    53.3000        42
    53.3200        36
    53.3400        58
    53.3600        74
    53.3800        62
    53.4000        78
    53.4200        90
    53.4400       102
    53.4600        96
    53.4800       134
    53.5000       124
    53.5200       138
    53.5400       128
    53.5600       114
    53.5800       126
    53.6000        98
    53.6200        98
    53.6400        98
    53.6600        96
    53.6800        64
    53.7000        56
    53.7200        52
    53.7400        48
    53.7600        40
    53.7800        40
    53.8000        50
    53.8200        42
    53.8400        46
    53.8600        28
    53.8800        28
    53.9000        30
    53.9200        34
    53.9400        36
    53.9600        30
    53.9800        34
    54.0000        36
    54.0200        32
    54.0400        28
    54.0600        28
    54.0800        24
    54.1000        28
    54.1200        26
    54.1400        26
    54.1600        30
    54.1800        28
    54.2000        26
    54.2200        34
    54.2400        32
    54.2600        32
    54.2800        46
    54.3000        34
    54.3200        36
    54.3400        34
    54.3600        30
    54.3800        36
    54.4000        34
    54.4200        44
    54.4400        58
    54.4600        68
    54.4800        64
    54.5000        70
    54.5200       106
    54.5400       120
    54.5600       114
    54.5800       126
    54.6000       114
    54.6200       100
    54.6400        98
    54.6600        72
    54.6800        96
    54.7000        82
    54.7200        72
    54.7400        80
    54.7600        64
    54.7800        70
    54.8000        54
    54.8200        50
    54.8400        44
    54.8600        36
    54.8800        32
    54.9000        42
    54.9200        28
    54.9400        28
    54.9600        32
    54.9800        26
    55.0000        32
    55.0200        30
    55.0400        18
    55.0600        32
    55.0800        32
    55.1000        40
    55.1200        24
    55.1400        30
    55.1600        30
    55.1800        30
    55.2000        30
    55.2200        32
    55.2400        30
    55.2600        30
    55.2800        30
    55.3000        34
    55.3200        28
    55.3400        28
    55.3600        26
    55.3800        28
    55.4000        28
    55.4200        30
    55.4400        24
    55.4600        28
    55.4800        26
    55.5000        36
    55.5200        36
    55.5400        34
    55.5600        36
    55.5800        20
    55.6000        30
    55.6200        26
    55.6400        32
    55.6600        20
    55.6800        22
    55.7000        40
    55.7200        26
    55.7400        34
    55.7600        28
    55.7800        32
    55.8000        22
    55.8200        22
    55.8400        30
    55.8600        22
    55.8800        30
    55.9000        34
    55.9200        26
    55.9400        24
    55.9600        34
    55.9800        28
    56.0000        32
    56.0200        30
    56.0400        28
    56.0600        28
    56.0800        38
    56.1000        40
    56.1200        30
    56.1400        24
    56.1600        34
    56.1800        32
    56.2000        28
    56.2200        28
    56.2400        38
    56.2600        42
    56.2800        26
    56.3000        36
    56.3200        38
    56.3400        34
    56.3600        32
    56.3800        36
    56.4000        40
    56.4200        26
    56.4400        40
    56.4600        36
    56.4800        40
    56.5000        48
    56.5200        56
    56.5400        72
    56.5600        96
    56.5800       138
    56.6000       138
    56.6200       102
    56.6400        98
    56.6600        92
    56.6800        90
    56.7000       100
    56.7200        82
    56.7400        92
    56.7600        82
    56.7800        94
    56.8000        64
    56.8200        54
    56.8400        50
    56.8600        40
    56.8800        34
    56.9000        32
    56.9200        34
    56.9400        30
    56.9600        28
    56.9800        42
    57.0000        44
    57.0200        28
    57.0400        26
    57.0600        40
    57.0800        46
    57.1000        52
    57.1200        64
    57.1400        70
    57.1600        72
    57.1800        80
    57.2000        84
    57.2200        92
    57.2400       122
    57.2600       116
    57.2800       122
    57.3000        94
    57.3200        74
    57.3400        76
    57.3600        72
    57.3800        54
    57.4000        68
    57.4200        66
    57.4400        58
    57.4600        52
    57.4800        38
    57.5000        32
    57.5200        28
    57.5400        28
    57.5600        58
    57.5800        26
    57.6000        40
    57.6200        32
    57.6400        24
    57.6600        34
    57.6800        42
    57.7000        28
    57.7200        32
    57.7400        28
    57.7600        30
    57.7800        26
    57.8000        34
    57.8200        34
    57.8400        32
    57.8600        32
    57.8800        32
    57.9000        50
    57.9200        32
    57.9400        54
    57.9600        50
    57.9800        58
    58.0000        46
    58.0200        48
    58.0400        44
    58.0600        52
    58.0800        34
    58.1000        34
    58.1200        46
    58.1400        38
    58.1600        36
    58.1800        28
    58.2000        36
    58.2200        28
    58.2400        24
    58.2600        28
    58.2800        38
    58.3000        36
    58.3200        24
    58.3400        36
    58.3600        28
    58.3800        24
    58.4000        26
    58.4200        44
    58.4400        38
    58.4600        30
    58.4800        32
    58.5000        38
    58.5200        44
    58.5400        44
    58.5600        36
    58.5800        26
    58.6000        28
    58.6200        40
    58.6400        40
    58.6600        38
    58.6800        40
    58.7000        42
    58.7200        42
    58.7400        28
    58.7600        32
    58.7800        34
    58.8000        46
    58.8200        26
    58.8400        50
    58.8600        50
    58.8800        72
    58.9000       102
    58.9200       134
    58.9400       170
    58.9600       170
    58.9800       208
    59.0000       284
    59.0200       242
    59.0400       172
    59.0600       148
    59.0800       128
    59.1000       138
    59.1200       152
    59.1400       144
    59.1600       146
    59.1800       162
    59.2000       124
    59.2200        82
    59.2400        64
    59.2600        58
    59.2800        62
    59.3000        66
    59.3200        48
    59.3400        66
    59.3600        60
    59.3800        54
    59.4000        46
    59.4200        50
    59.4400        34
    59.4600        48
    59.4800        54
    59.5000        38
    59.5200        42
    59.5400        36
    59.5600        50
    59.5800        36
    59.6000        28
    59.6200        42
    59.6400        34
    59.6600        34
    59.6800        18
    59.7000        34
    59.7200        32
    59.7400        46
    59.7600        26
    59.7800        36
    59.8000        28
    59.8200        28
    59.8400        30
    59.8600        22
    59.8800        24
    59.9000        34
    59.9200        28
    59.9400        22
    59.9600        22
    59.9800        28
    60.0000        20
    60.0200        36
    60.0400        18
    60.0600        22
    60.0800        26
    60.1000        42
    60.1200        26
    60.1400        32
    60.1600        30
    60.1800        26
    60.2000        40
    60.2200        42
    60.2400        54
    60.2600        40
    60.2800        46
    60.3000        40
    60.3200        34
    60.3400        30
    60.3600        42
    60.3800        36
    60.4000        34
    60.4200        48
    60.4400        32
    60.4600        28
    60.4800        32
    60.5000        32
    60.5200        38
    60.5400        30
    60.5600        22
    60.5800        30
    60.6000        24
    60.6200        32
    60.6400        30
    60.6600        34
    60.6800        28
    60.7000        28
    60.7200        38
    60.7400        36
    60.7600        52
    60.7800        36
    60.8000        34
    60.8200        52
    60.8400        38
    60.8600        40
    60.8800        48
    60.9000        46
    60.9200        70
    60.9400        44
    60.9600        74
    60.9800        86
    61.0000        94
    61.0200        82
    61.0400        80
    61.0600        86
    61.0800        84
    61.1000        94
    61.1200       148
    61.1400       102
    61.1600       128
    61.1800       108
    61.2000        92
    61.2200        76
    61.2400        86
    61.2600        62
    61.2800        96
    61.3000        70
    61.3200        64
    61.3400        58
    61.3600        48
    61.3800        36
    61.4000        38
    61.4200        46
    61.4400        36
    61.4600        38
    61.4800        26
    61.5000        18
    61.5200        40
    61.5400        22
    61.5600        36
    61.5800        36
    61.6000        32
    61.6200        32
    61.6400        30
    61.6600        26
    61.6800        26
    61.7000        18
    61.7200        28
    61.7400        30
    61.7600        30
    61.7800        34
    61.8000        28
    61.8200        24
    61.8400        20
    61.8600        22
    61.8800        24
    61.9000        32
    61.9200        28
    61.9400        26
    61.9600        30
    61.9800        34
    62.0000        46
    62.0200        26
    62.0400        36
    62.0600        38
    62.0800        30
    62.1000        46
    62.1200        30
    62.1400        28
    62.1600        28
    62.1800        32
    62.2000        36
    62.2200        26
    62.2400        44
    62.2600        32
    62.2800        36
    62.3000        42
    62.3200        28
    62.3400        36
    62.3600        38
    62.3800        32
    62.4000        30
    62.4200        38
    62.4400        36
    62.4600        32
    62.4800        32
    62.5000        48
    62.5200        40
    62.5400        56
    62.5600        68
    62.5800        84
    62.6000        80
    62.6200        62
    62.6400        56
    62.6600        58
    62.6800        50
    62.7000        42
    62.7200        48
    62.7400        48
    62.7600        48
    62.7800        52
    62.8000        46
    62.8200        30
    62.8400        44
    62.8600        28
    62.8800        26
    62.9000        38
    62.9200        36
    62.9400        30
    62.9600        40
    62.9800        42
    63.0000        52
    63.0200        36
    63.0400        64
    63.0600        80
    63.0800        68
    63.1000        58
    63.1200        72
    63.1400        62
    63.1600        76
    63.1800        82
    63.2000        74
    63.2200        78
    63.2400        78
    63.2600        60
    63.2800        92
    63.3000        82
    63.3200       102
    63.3400       128
    63.3600       170
    63.3800       190
    63.4000       198
    63.4200       210
    63.4400       192
    63.4600       182
    63.4800       170
    63.5000       116
    63.5200       126
    63.5400       148
    63.5600       174
    63.5800       228
    63.6000       198
    63.6200       194
    63.6400       132
    63.6600        88
    63.6800        70
    63.7000        74
    63.7200        70
    63.7400        84
    63.7600        76
    63.7800        84
    63.8000        66
    63.8200        70
    63.8400        56
    63.8600        48
    63.8800        38
    63.9000        28
    63.9200        24
    63.9400        34
    63.9600        40
    63.9800        24
    64.0000        26
    64.0200        42
    64.0400        32
    64.0600        38
    64.0800        26
    64.1000        24
    64.1200        16
    64.1400        28
    64.1600        30
    64.1800        34
    64.2000        28
    64.2200        26
    64.2400        30
    64.2600        30
    64.2800        24
    64.3000        30
    64.3200        32
    64.3400        24
    64.3600        28
    64.3800        30
    64.4000        30
    64.4200        30
    64.4400        26
    64.4600        26
    64.4800        24
    64.5000        24
    64.5200        24
    64.5400        26
    64.5600        28
    64.5800        26
    64.6000        26
    64.6200        30
    64.6400        28
    64.6600        26
    64.6800        30
    64.7000        34
    64.7200        30
    64.7400        30
    64.7600        24
    64.7800        28
    64.8000        34
    64.8200        24
    64.8400        28
    64.8600        30
    64.8800        26
    64.9000        40
    64.9200        32
    64.9400        26
    64.9600        30
    64.9800        38
    65.0000        36
