/////////////////////////////////////////////////////////////////////////////////
/// Profile Data Ascii Dump (XRD)                                             ///
/////////////////////////////////////////////////////////////////////////////////

  Group     : Swayze
  Data      : GDS7
  File Name : GDS7.RAW

# Profile Datafile
          comment             = Scolecite 
          date & time         = 08-03-25 05:51:12 

# Measurement Condition
    X-ray tube
          target              = Cu 
          voltage             = 40.0 (kV)
          current             = 30.0 (mA)
    Slits
          divergence slit     = 2.00000 (deg) 
          scatter slit        = 2.00000 (deg) 
          receiving slit      = 0.15000 (mm)  
    Scanning
          drive axis          = Theta-2Theta 
          scan range          =    4.000 -   65.000 
          scan mode           = Continuous Scan 
          scan speed          =   2.0000 (deg/min) 
          sampling pitch      =   0.0200 (deg) 
          preset time         =   0.60 (sec) 

# Data      [ Total No. = 3051 ]
  <2Theta>   <   I   >
     4.0000       210
     4.0200       216
     4.0400       198
     4.0600       170
     4.0800       174
     4.1000       174
     4.1200       210
     4.1400       178
     4.1600       190
     4.1800       180
     4.2000       180
     4.2200       200
     4.2400       184
     4.2600       204
     4.2800       184
     4.3000       178
     4.3200       182
     4.3400       148
     4.3600       204
     4.3800       172
     4.4000       174
     4.4200       184
     4.4400       184
     4.4600       164
     4.4800       170
     4.5000       184
     4.5200       174
     4.5400       202
     4.5600       154
     4.5800       172
     4.6000       164
     4.6200       180
     4.6400       196
     4.6600       148
     4.6800       142
     4.7000       160
     4.7200       158
     4.7400       186
     4.7600       184
     4.7800       152
     4.8000       142
     4.8200       166
     4.8400       128
     4.8600       168
     4.8800       174
     4.9000       156
     4.9200       164
     4.9400       162
     4.9600       174
     4.9800       150
     5.0000       144
     5.0200       160
     5.0400       172
     5.0600       178
     5.0800       156
     5.1000       148
     5.1200       158
     5.1400       180
     5.1600       166
     5.1800       166
     5.2000       158
     5.2200       166
     5.2400       182
     5.2600       148
     5.2800       168
     5.3000       156
     5.3200       172
     5.3400       166
     5.3600       180
     5.3800       182
     5.4000       142
     5.4200       152
     5.4400       168
     5.4600       162
     5.4800       174
     5.5000       166
     5.5200       184
     5.5400       160
     5.5600       154
     5.5800       160
     5.6000       158
     5.6200       136
     5.6400       164
     5.6600       158
     5.6800       148
     5.7000       124
     5.7200       160
     5.7400       152
     5.7600       144
     5.7800       154
     5.8000       156
     5.8200       168
     5.8400       136
     5.8600       158
     5.8800       158
     5.9000       140
     5.9200       184
     5.9400       152
     5.9600       152
     5.9800       166
     6.0000       164
     6.0200       170
     6.0400       154
     6.0600       160
     6.0800       132
     6.1000       150
     6.1200       154
     6.1400       158
     6.1600       162
     6.1800       162
     6.2000       132
     6.2200       172
     6.2400       154
     6.2600       138
     6.2800       136
     6.3000       182
     6.3200       128
     6.3400       130
     6.3600       158
     6.3800       160
     6.4000       158
     6.4200       132
     6.4400       144
     6.4600       128
     6.4800       154
     6.5000       152
     6.5200       142
     6.5400       122
     6.5600       140
     6.5800       146
     6.6000       104
     6.6200       142
     6.6400       116
     6.6600       110
     6.6800       134
     6.7000       126
     6.7200       148
     6.7400       144
     6.7600       138
     6.7800       124
     6.8000       134
     6.8200       158
     6.8400       130
     6.8600       120
     6.8800       128
     6.9000       152
     6.9200       102
     6.9400       116
     6.9600       132
     6.9800       106
     7.0000       102
     7.0200       140
     7.0400       124
     7.0600       130
     7.0800       122
     7.1000       118
     7.1200       120
     7.1400       116
     7.1600       120
     7.1800       124
     7.2000       112
     7.2200       132
     7.2400       112
     7.2600       114
     7.2800       124
     7.3000       128
     7.3200       124
     7.3400       102
     7.3600       158
     7.3800        96
     7.4000       124
     7.4200       118
     7.4400       130
     7.4600       132
     7.4800       118
     7.5000       118
     7.5200        92
     7.5400       116
     7.5600       114
     7.5800        90
     7.6000       134
     7.6200       132
     7.6400       120
     7.6600       112
     7.6800       114
     7.7000       100
     7.7200       114
     7.7400       112
     7.7600       126
     7.7800       108
     7.8000       120
     7.8200       116
     7.8400       120
     7.8600       100
     7.8800       112
     7.9000       110
     7.9200       114
     7.9400       102
     7.9600       132
     7.9800       116
     8.0000       126
     8.0200       134
     8.0400        92
     8.0600       122
     8.0800       124
     8.1000       114
     8.1200       102
     8.1400       120
     8.1600       108
     8.1800        96
     8.2000       118
     8.2200        94
     8.2400       114
     8.2600       118
     8.2800       120
     8.3000       116
     8.3200       106
     8.3400       116
     8.3600       118
     8.3800       120
     8.4000       108
     8.4200       112
     8.4400       122
     8.4600       118
     8.4800       112
     8.5000       118
     8.5200       106
     8.5400       116
     8.5600       108
     8.5800       134
     8.6000       126
     8.6200       116
     8.6400       124
     8.6600       102
     8.6800       104
     8.7000       122
     8.7200       118
     8.7400       100
     8.7600       108
     8.7800       124
     8.8000       118
     8.8200       122
     8.8400       110
     8.8600       126
     8.8800       108
     8.9000       116
     8.9200       110
     8.9400       124
     8.9600       110
     8.9800       138
     9.0000       122
     9.0200       112
     9.0400       106
     9.0600       106
     9.0800       100
     9.1000       104
     9.1200       120
     9.1400        86
     9.1600        94
     9.1800       142
     9.2000       140
     9.2200       116
     9.2400       106
     9.2600       114
     9.2800       112
     9.3000       120
     9.3200       126
     9.3400       118
     9.3600        96
     9.3800       104
     9.4000       120
     9.4200       124
     9.4400       136
     9.4600       120
     9.4800       118
     9.5000       120
     9.5200        98
     9.5400        98
     9.5600       106
     9.5800       112
     9.6000       120
     9.6200       100
     9.6400        98
     9.6600       118
     9.6800       116
     9.7000        88
     9.7200       108
     9.7400       110
     9.7600       104
     9.7800        98
     9.8000        84
     9.8200       102
     9.8400       106
     9.8600       126
     9.8800       124
     9.9000       108
     9.9200       102
     9.9400        96
     9.9600       106
     9.9800       114
    10.0000       102
    10.0200       100
    10.0400       106
    10.0600       100
    10.0800       104
    10.1000       112
    10.1200       106
    10.1400        94
    10.1600        96
    10.1800       114
    10.2000       104
    10.2200        96
    10.2400        94
    10.2600        72
    10.2800       104
    10.3000       102
    10.3200        86
    10.3400       110
    10.3600        86
    10.3800       116
    10.4000        80
    10.4200        94
    10.4400       108
    10.4600        92
    10.4800        94
    10.5000       106
    10.5200        88
    10.5400       104
    10.5600        88
    10.5800        98
    10.6000        96
    10.6200       108
    10.6400        88
    10.6600        92
    10.6800       100
    10.7000       102
    10.7200       106
    10.7400       100
    10.7600       110
    10.7800        90
    10.8000        78
    10.8200        88
    10.8400        88
    10.8600       102
    10.8800        80
    10.9000        90
    10.9200        90
    10.9400        86
    10.9600        88
    10.9800        98
    11.0000        96
    11.0200       104
    11.0400       100
    11.0600        96
    11.0800        82
    11.1000        92
    11.1200        98
    11.1400        92
    11.1600        80
    11.1800        86
    11.2000        96
    11.2200        84
    11.2400        96
    11.2600        90
    11.2800        82
    11.3000        88
    11.3200        78
    11.3400        96
    11.3600        82
    11.3800        68
    11.4000        88
    11.4200        94
    11.4400        92
    11.4600        78
    11.4800        86
    11.5000        82
    11.5200       104
    11.5400       100
    11.5600        68
    11.5800        94
    11.6000        90
    11.6200        90
    11.6400        70
    11.6600        88
    11.6800        90
    11.7000        86
    11.7200        82
    11.7400        92
    11.7600        60
    11.7800        70
    11.8000        70
    11.8200        90
    11.8400        80
    11.8600        76
    11.8800        88
    11.9000       100
    11.9200        86
    11.9400        80
    11.9600        92
    11.9800        96
    12.0000        84
    12.0200        74
    12.0400        78
    12.0600        82
    12.0800        78
    12.1000        80
    12.1200        82
    12.1400        80
    12.1600        68
    12.1800        80
    12.2000        82
    12.2200        54
    12.2400       100
    12.2600        88
    12.2800        78
    12.3000        72
    12.3200        88
    12.3400        74
    12.3600        76
    12.3800        88
    12.4000        78
    12.4200        74
    12.4400        80
    12.4600        76
    12.4800        72
    12.5000       102
    12.5200        80
    12.5400        74
    12.5600        88
    12.5800        66
    12.6000        68
    12.6200        86
    12.6400       102
    12.6600        54
    12.6800        88
    12.7000        86
    12.7200        80
    12.7400        92
    12.7600        94
    12.7800        84
    12.8000        98
    12.8200       100
    12.8400        92
    12.8600       102
    12.8800       128
    12.9000       142
    12.9200       168
    12.9400       176
    12.9600       220
    12.9800       268
    13.0000       274
    13.0200       290
    13.0400       246
    13.0600       170
    13.0800       204
    13.1000       264
    13.1200       286
    13.1400       320
    13.1600       398
    13.1800       606
    13.2000       964
    13.2200      1454
    13.2400      1880
    13.2600      2170
    13.2800      1896
    13.3000      1434
    13.3200       796
    13.3400       464
    13.3600       262
    13.3800       180
    13.4000       104
    13.4200       106
    13.4400        82
    13.4600       106
    13.4800       106
    13.5000        82
    13.5200        86
    13.5400        86
    13.5600        84
    13.5800        64
    13.6000        76
    13.6200        68
    13.6400        86
    13.6600        62
    13.6800        68
    13.7000        68
    13.7200        78
    13.7400        60
    13.7600        58
    13.7800        76
    13.8000        76
    13.8200        60
    13.8400        60
    13.8600        66
    13.8800        62
    13.9000        66
    13.9200        82
    13.9400        64
    13.9600        58
    13.9800        78
    14.0000        76
    14.0200        74
    14.0400        54
    14.0600        80
    14.0800        68
    14.1000        56
    14.1200        58
    14.1400        66
    14.1600        74
    14.1800        62
    14.2000        80
    14.2200        68
    14.2400        64
    14.2600        58
    14.2800        60
    14.3000        66
    14.3200        66
    14.3400        62
    14.3600        66
    14.3800        96
    14.4000        56
    14.4200        90
    14.4400        64
    14.4600        66
    14.4800        80
    14.5000        72
    14.5200        64
    14.5400        74
    14.5600        74
    14.5800        78
    14.6000        84
    14.6200       106
    14.6400        90
    14.6600       100
    14.6800       108
    14.7000       134
    14.7200        82
    14.7400       102
    14.7600        92
    14.7800       138
    14.8000       122
    14.8200       100
    14.8400       150
    14.8600       232
    14.8800       214
    14.9000       222
    14.9200       254
    14.9400       252
    14.9600       284
    14.9800       286
    15.0000       248
    15.0200       214
    15.0400       188
    15.0600       166
    15.0800       156
    15.1000       138
    15.1200       108
    15.1400        70
    15.1600        90
    15.1800        78
    15.2000        62
    15.2200        64
    15.2400        54
    15.2600        58
    15.2800        78
    15.3000        72
    15.3200        70
    15.3400        64
    15.3600        56
    15.3800        54
    15.4000        60
    15.4200        46
    15.4400        46
    15.4600        68
    15.4800        54
    15.5000        68
    15.5200        60
    15.5400        50
    15.5600        62
    15.5800        62
    15.6000        58
    15.6200        60
    15.6400        50
    15.6600        58
    15.6800        44
    15.7000        54
    15.7200        52
    15.7400        44
    15.7600        66
    15.7800        46
    15.8000        42
    15.8200        64
    15.8400        52
    15.8600        66
    15.8800        54
    15.9000        62
    15.9200        58
    15.9400        58
    15.9600        60
    15.9800        54
    16.0000        74
    16.0200        58
    16.0400        40
    16.0600        40
    16.0800        56
    16.1000        48
    16.1200        52
    16.1400        62
    16.1600        54
    16.1800        46
    16.2000        54
    16.2200        62
    16.2400        66
    16.2600        44
    16.2800        50
    16.3000        62
    16.3200        56
    16.3400        58
    16.3600        52
    16.3800        40
    16.4000        52
    16.4200        42
    16.4400        62
    16.4600        70
    16.4800        58
    16.5000        52
    16.5200        56
    16.5400        66
    16.5600        74
    16.5800        54
    16.6000        66
    16.6200        54
    16.6400        56
    16.6600        62
    16.6800        58
    16.7000        66
    16.7200        48
    16.7400        48
    16.7600        64
    16.7800        50
    16.8000        52
    16.8200        44
    16.8400        54
    16.8600        56
    16.8800        48
    16.9000        50
    16.9200        52
    16.9400        54
    16.9600        42
    16.9800        72
    17.0000        62
    17.0200        54
    17.0400        46
    17.0600        38
    17.0800        54
    17.1000        62
    17.1200        56
    17.1400        56
    17.1600        40
    17.1800        60
    17.2000        38
    17.2200        44
    17.2400        54
    17.2600        60
    17.2800        58
    17.3000        50
    17.3200        46
    17.3400        48
    17.3600        46
    17.3800        60
    17.4000        54
    17.4200        66
    17.4400        46
    17.4600        66
    17.4800        64
    17.5000        60
    17.5200        42
    17.5400        46
    17.5600        56
    17.5800        54
    17.6000        40
    17.6200        54
    17.6400        54
    17.6600        50
    17.6800        32
    17.7000        48
    17.7200        52
    17.7400        64
    17.7600        44
    17.7800        58
    17.8000        46
    17.8200        50
    17.8400        50
    17.8600        52
    17.8800        68
    17.9000        56
    17.9200        58
    17.9400        58
    17.9600        48
    17.9800        62
    18.0000        58
    18.0200        66
    18.0400        58
    18.0600        52
    18.0800        44
    18.1000        74
    18.1200        64
    18.1400        66
    18.1600        50
    18.1800        78
    18.2000        66
    18.2200        88
    18.2400        78
    18.2600       102
    18.2800        84
    18.3000        80
    18.3200       104
    18.3400        98
    18.3600       102
    18.3800        88
    18.4000       100
    18.4200       116
    18.4400       146
    18.4600       184
    18.4800       260
    18.5000       430
    18.5200       552
    18.5400       556
    18.5600       562
    18.5800       502
    18.6000       458
    18.6200       518
    18.6400       512
    18.6600       448
    18.6800       386
    18.7000       326
    18.7200       248
    18.7400       186
    18.7600       148
    18.7800        98
    18.8000        96
    18.8200       118
    18.8400        98
    18.8600       102
    18.8800       102
    18.9000       122
    18.9200       160
    18.9400       166
    18.9600       346
    18.9800       686
    19.0000      1064
    19.0200      1144
    19.0400      1100
    19.0600      1054
    19.0800       860
    19.1000       570
    19.1200       412
    19.1400       304
    19.1600       176
    19.1800       142
    19.2000       112
    19.2200        86
    19.2400        74
    19.2600        82
    19.2800        80
    19.3000        64
    19.3200        60
    19.3400        64
    19.3600        52
    19.3800        66
    19.4000        72
    19.4200        82
    19.4400        64
    19.4600        64
    19.4800        64
    19.5000        42
    19.5200        64
    19.5400        52
    19.5600        66
    19.5800        46
    19.6000        62
    19.6200        62
    19.6400        66
    19.6600        72
    19.6800        50
    19.7000        68
    19.7200        68
    19.7400        72
    19.7600        64
    19.7800        86
    19.8000       104
    19.8200       100
    19.8400       136
    19.8600       172
    19.8800       202
    19.9000       262
    19.9200       258
    19.9400       256
    19.9600       306
    19.9800       276
    20.0000       284
    20.0200       296
    20.0400       314
    20.0600       350
    20.0800       326
    20.1000       294
    20.1200       302
    20.1400       296
    20.1600       344
    20.1800       268
    20.2000       254
    20.2200       196
    20.2400       188
    20.2600       170
    20.2800       180
    20.3000       220
    20.3200       204
    20.3400       206
    20.3600       212
    20.3800       192
    20.4000       158
    20.4200       114
    20.4400       110
    20.4600        68
    20.4800        70
    20.5000        46
    20.5200        62
    20.5400        74
    20.5600        62
    20.5800        64
    20.6000        84
    20.6200        82
    20.6400        86
    20.6600        68
    20.6800        80
    20.7000        92
    20.7200        90
    20.7400        86
    20.7600       104
    20.7800       130
    20.8000       154
    20.8200       230
    20.8400       304
    20.8600       378
    20.8800       476
    20.9000       530
    20.9200       560
    20.9400       604
    20.9600       568
    20.9800       470
    21.0000       414
    21.0200       318
    21.0400       230
    21.0600       188
    21.0800       132
    21.1000       110
    21.1200       126
    21.1400       120
    21.1600       138
    21.1800       184
    21.2000       172
    21.2200       228
    21.2400       234
    21.2600       254
    21.2800       240
    21.3000       220
    21.3200       166
    21.3400       154
    21.3600        98
    21.3800        90
    21.4000        56
    21.4200        56
    21.4400        68
    21.4600        54
    21.4800        46
    21.5000        46
    21.5200        54
    21.5400        38
    21.5600        44
    21.5800        48
    21.6000        46
    21.6200        36
    21.6400        28
    21.6600        50
    21.6800        50
    21.7000        54
    21.7200        54
    21.7400        50
    21.7600        56
    21.7800        42
    21.8000        52
    21.8200        68
    21.8400        30
    21.8600        40
    21.8800        48
    21.9000        42
    21.9200        40
    21.9400        48
    21.9600        28
    21.9800        42
    22.0000        42
    22.0200        48
    22.0400        58
    22.0600        44
    22.0800        50
    22.1000        60
    22.1200        46
    22.1400        40
    22.1600        38
    22.1800        44
    22.2000        40
    22.2200        38
    22.2400        40
    22.2600        40
    22.2800        44
    22.3000        62
    22.3200        46
    22.3400        42
    22.3600        46
    22.3800        36
    22.4000        26
    22.4200        48
    22.4400        40
    22.4600        32
    22.4800        38
    22.5000        40
    22.5200        42
    22.5400        46
    22.5600        46
    22.5800        40
    22.6000        36
    22.6200        40
    22.6400        38
    22.6600        42
    22.6800        30
    22.7000        30
    22.7200        42
    22.7400        42
    22.7600        40
    22.7800        40
    22.8000        36
    22.8200        52
    22.8400        38
    22.8600        28
    22.8800        48
    22.9000        44
    22.9200        48
    22.9400        42
    22.9600        30
    22.9800        30
    23.0000        46
    23.0200        32
    23.0400        42
    23.0600        38
    23.0800        46
    23.1000        44
    23.1200        36
    23.1400        30
    23.1600        48
    23.1800        40
    23.2000        38
    23.2200        46
    23.2400        40
    23.2600        42
    23.2800        42
    23.3000        40
    23.3200        34
    23.3400        36
    23.3600        52
    23.3800        44
    23.4000        34
    23.4200        34
    23.4400        32
    23.4600        42
    23.4800        38
    23.5000        32
    23.5200        38
    23.5400        40
    23.5600        44
    23.5800        42
    23.6000        30
    23.6200        46
    23.6400        38
    23.6600        44
    23.6800        40
    23.7000        26
    23.7200        46
    23.7400        30
    23.7600        30
    23.7800        42
    23.8000        48
    23.8200        44
    23.8400        40
    23.8600        46
    23.8800        52
    23.9000        40
    23.9200        60
    23.9400        58
    23.9600        44
    23.9800        42
    24.0000        48
    24.0200        64
    24.0400        60
    24.0600        72
    24.0800        62
    24.1000        62
    24.1200        78
    24.1400        90
    24.1600        86
    24.1800        96
    24.2000        92
    24.2200       102
    24.2400       104
    24.2600       134
    24.2800       142
    24.3000       160
    24.3200       144
    24.3400       124
    24.3600       112
    24.3800        82
    24.4000        54
    24.4200        48
    24.4400        42
    24.4600        46
    24.4800        46
    24.5000        36
    24.5200        26
    24.5400        32
    24.5600        36
    24.5800        44
    24.6000        52
    24.6200        54
    24.6400        38
    24.6600        56
    24.6800        44
    24.7000        42
    24.7200        40
    24.7400        32
    24.7600        38
    24.7800        28
    24.8000        30
    24.8200        46
    24.8400        26
    24.8600        38
    24.8800        32
    24.9000        30
    24.9200        40
    24.9400        40
    24.9600        30
    24.9800        44
    25.0000        34
    25.0200        38
    25.0400        34
    25.0600        28
    25.0800        48
    25.1000        46
    25.1200        32
    25.1400        40
    25.1600        34
    25.1800        52
    25.2000        44
    25.2200        42
    25.2400        44
    25.2600        42
    25.2800        32
    25.3000        36
    25.3200        34
    25.3400        40
    25.3600        20
    25.3800        48
    25.4000        34
    25.4200        36
    25.4400        28
    25.4600        38
    25.4800        42
    25.5000        36
    25.5200        46
    25.5400        38
    25.5600        36
    25.5800        38
    25.6000        32
    25.6200        36
    25.6400        26
    25.6600        38
    25.6800        44
    25.7000        40
    25.7200        36
    25.7400        48
    25.7600        26
    25.7800        34
    25.8000        40
    25.8200        44
    25.8400        30
    25.8600        32
    25.8800        34
    25.9000        32
    25.9200        26
    25.9400        38
    25.9600        38
    25.9800        36
    26.0000        38
    26.0200        26
    26.0400        42
    26.0600        32
    26.0800        46
    26.1000        32
    26.1200        38
    26.1400        34
    26.1600        34
    26.1800        30
    26.2000        34
    26.2200        24
    26.2400        32
    26.2600        40
    26.2800        36
    26.3000        40
    26.3200        40
    26.3400        34
    26.3600        40
    26.3800        30
    26.4000        44
    26.4200        44
    26.4400        46
    26.4600        42
    26.4800        36
    26.5000        44
    26.5200        54
    26.5400        52
    26.5600        34
    26.5800        46
    26.6000        48
    26.6200        52
    26.6400        70
    26.6600        82
    26.6800        80
    26.7000        98
    26.7200        84
    26.7400       100
    26.7600       132
    26.7800       166
    26.8000       174
    26.8200       158
    26.8400       168
    26.8600       122
    26.8800       126
    26.9000       104
    26.9200        68
    26.9400        68
    26.9600        44
    26.9800        42
    27.0000        42
    27.0200        30
    27.0400        48
    27.0600        46
    27.0800        48
    27.1000        52
    27.1200        38
    27.1400        52
    27.1600        44
    27.1800        48
    27.2000        38
    27.2200        48
    27.2400        58
    27.2600        66
    27.2800        56
    27.3000        92
    27.3200        70
    27.3400        96
    27.3600       126
    27.3800       148
    27.4000       162
    27.4200       220
    27.4400       274
    27.4600       272
    27.4800       304
    27.5000       314
    27.5200       250
    27.5400       236
    27.5600       228
    27.5800       152
    27.6000       134
    27.6200       148
    27.6400       172
    27.6600       102
    27.6800       114
    27.7000       100
    27.7200       122
    27.7400       110
    27.7600       116
    27.7800       126
    27.8000       136
    27.8200       146
    27.8400       114
    27.8600       120
    27.8800       114
    27.9000       110
    27.9200       116
    27.9400        80
    27.9600        82
    27.9800        84
    28.0000        88
    28.0200       104
    28.0400       114
    28.0600       168
    28.0800       208
    28.1000       232
    28.1200       186
    28.1400       184
    28.1600       178
    28.1800       120
    28.2000        90
    28.2200        94
    28.2400        54
    28.2600        54
    28.2800        48
    28.3000        42
    28.3200        28
    28.3400        40
    28.3600        32
    28.3800        42
    28.4000        32
    28.4200        34
    28.4400        40
    28.4600        34
    28.4800        38
    28.5000        42
    28.5200        34
    28.5400        42
    28.5600        40
    28.5800        30
    28.6000        46
    28.6200        52
    28.6400        62
    28.6600        54
    28.6800        78
    28.7000       106
    28.7200        96
    28.7400       104
    28.7600       136
    28.7800       174
    28.8000       164
    28.8200       130
    28.8400       122
    28.8600       126
    28.8800        96
    28.9000        64
    28.9200        74
    28.9400        54
    28.9600        60
    28.9800        94
    29.0000       112
    29.0200       154
    29.0400       148
    29.0600        96
    29.0800        84
    29.1000        76
    29.1200        74
    29.1400        60
    29.1600        46
    29.1800        46
    29.2000        38
    29.2200        32
    29.2400        42
    29.2600        32
    29.2800        40
    29.3000        38
    29.3200        44
    29.3400        38
    29.3600        44
    29.3800        32
    29.4000        54
    29.4200        58
    29.4400        34
    29.4600        52
    29.4800        52
    29.5000        46
    29.5200        44
    29.5400        60
    29.5600        72
    29.5800        86
    29.6000       116
    29.6200       194
    29.6400       190
    29.6600       156
    29.6800       182
    29.7000       192
    29.7200       184
    29.7400       216
    29.7600       186
    29.7800       174
    29.8000       152
    29.8200       106
    29.8400       116
    29.8600        80
    29.8800        54
    29.9000        56
    29.9200        50
    29.9400        54
    29.9600        64
    29.9800        60
    30.0000        56
    30.0200        50
    30.0400        60
    30.0600        56
    30.0800        74
    30.1000        66
    30.1200        78
    30.1400        98
    30.1600       124
    30.1800       140
    30.2000       200
    30.2200       266
    30.2400       336
    30.2600       532
    30.2800       876
    30.3000      1174
    30.3200       786
    30.3400       580
    30.3600       668
    30.3800       608
    30.4000       400
    30.4200       232
    30.4400       246
    30.4600       202
    30.4800       186
    30.5000       182
    30.5200       228
    30.5400       244
    30.5600       320
    30.5800       408
    30.6000       540
    30.6200       530
    30.6400       516
    30.6600       584
    30.6800       670
    30.7000       588
    30.7200       616
    30.7400       730
    30.7600       698
    30.7800       674
    30.8000       744
    30.8200       674
    30.8400       648
    30.8600       612
    30.8800       582
    30.9000       550
    30.9200       522
    30.9400       400
    30.9600       342
    30.9800       334
    31.0000       306
    31.0200       318
    31.0400       276
    31.0600       284
    31.0800       268
    31.1000       310
    31.1200       350
    31.1400       338
    31.1600       360
    31.1800       308
    31.2000       272
    31.2200       222
    31.2400       188
    31.2600       144
    31.2800       102
    31.3000        84
    31.3200        74
    31.3400        46
    31.3600        46
    31.3800        50
    31.4000        40
    31.4200        40
    31.4400        36
    31.4600        44
    31.4800        34
    31.5000        32
    31.5200        38
    31.5400        32
    31.5600        40
    31.5800        36
    31.6000        40
    31.6200        22
    31.6400        28
    31.6600        28
    31.6800        36
    31.7000        22
    31.7200        28
    31.7400        36
    31.7600        34
    31.7800        46
    31.8000        18
    31.8200        32
    31.8400        36
    31.8600        28
    31.8800        38
    31.9000        26
    31.9200        24
    31.9400        32
    31.9600        24
    31.9800        26
    32.0000        36
    32.0200        38
    32.0400        32
    32.0600        32
    32.0800        42
    32.1000        22
    32.1200        22
    32.1400        24
    32.1600        30
    32.1800        32
    32.2000        34
    32.2200        34
    32.2400        26
    32.2600        28
    32.2800        38
    32.3000        26
    32.3200        32
    32.3400        28
    32.3600        32
    32.3800        32
    32.4000        32
    32.4200        24
    32.4400        20
    32.4600        38
    32.4800        32
    32.5000        22
    32.5200        38
    32.5400        28
    32.5600        32
    32.5800        28
    32.6000        26
    32.6200        20
    32.6400        40
    32.6600        26
    32.6800        30
    32.7000        24
    32.7200        28
    32.7400        38
    32.7600        32
    32.7800        24
    32.8000        28
    32.8200        28
    32.8400        32
    32.8600        32
    32.8800        26
    32.9000        26
    32.9200        20
    32.9400        24
    32.9600        42
    32.9800        30
    33.0000        32
    33.0200        32
    33.0400        40
    33.0600        32
    33.0800        28
    33.1000        28
    33.1200        36
    33.1400        50
    33.1600        34
    33.1800        52
    33.2000        50
    33.2200        42
    33.2400        46
    33.2600        42
    33.2800        40
    33.3000        34
    33.3200        24
    33.3400        40
    33.3600        38
    33.3800        40
    33.4000        26
    33.4200        30
    33.4400        34
    33.4600        26
    33.4800        36
    33.5000        28
    33.5200        30
    33.5400        26
    33.5600        30
    33.5800        24
    33.6000        24
    33.6200        32
    33.6400        26
    33.6600        26
    33.6800        26
    33.7000        24
    33.7200        34
    33.7400        22
    33.7600        34
    33.7800        22
    33.8000        40
    33.8200        36
    33.8400        30
    33.8600        20
    33.8800        36
    33.9000        34
    33.9200        26
    33.9400        28
    33.9600        42
    33.9800        36
    34.0000        24
    34.0200        34
    34.0400        30
    34.0600        42
    34.0800        38
    34.1000        60
    34.1200        48
    34.1400        46
    34.1600        62
    34.1800        86
    34.2000       110
    34.2200       136
    34.2400       178
    34.2600       138
    34.2800       118
    34.3000       136
    34.3200       106
    34.3400        72
    34.3600        82
    34.3800        82
    34.4000        70
    34.4200        78
    34.4400        96
    34.4600       112
    34.4800       124
    34.5000       138
    34.5200       132
    34.5400       140
    34.5600       134
    34.5800       138
    34.6000       112
    34.6200       130
    34.6400       114
    34.6600        82
    34.6800        74
    34.7000        70
    34.7200        50
    34.7400        38
    34.7600        40
    34.7800        34
    34.8000        30
    34.8200        38
    34.8400        42
    34.8600        38
    34.8800        26
    34.9000        54
    34.9200        34
    34.9400        54
    34.9600        30
    34.9800        48
    35.0000        32
    35.0200        44
    35.0400        42
    35.0600        32
    35.0800        32
    35.1000        38
    35.1200        54
    35.1400        36
    35.1600        48
    35.1800        42
    35.2000        36
    35.2200        34
    35.2400        24
    35.2600        22
    35.2800        28
    35.3000        32
    35.3200        32
    35.3400        34
    35.3600        36
    35.3800        24
    35.4000        36
    35.4200        28
    35.4400        28
    35.4600        36
    35.4800        18
    35.5000        18
    35.5200        22
    35.5400        30
    35.5600        32
    35.5800        34
    35.6000        16
    35.6200        24
    35.6400        22
    35.6600        22
    35.6800        38
    35.7000        26
    35.7200        20
    35.7400        28
    35.7600        46
    35.7800        40
    35.8000        38
    35.8200        44
    35.8400        34
    35.8600        32
    35.8800        68
    35.9000        58
    35.9200        70
    35.9400        80
    35.9600       100
    35.9800       130
    36.0000       114
    36.0200       100
    36.0400       104
    36.0600       120
    36.0800       126
    36.1000       162
    36.1200       138
    36.1400        92
    36.1600        66
    36.1800        74
    36.2000        86
    36.2200        64
    36.2400        56
    36.2600        60
    36.2800        42
    36.3000        48
    36.3200        36
    36.3400        40
    36.3600        42
    36.3800        58
    36.4000        32
    36.4200        36
    36.4400        44
    36.4600        40
    36.4800        56
    36.5000        70
    36.5200        66
    36.5400        82
    36.5600        80
    36.5800        62
    36.6000        50
    36.6200        64
    36.6400        78
    36.6600        72
    36.6800        96
    36.7000       100
    36.7200        90
    36.7400        72
    36.7600        66
    36.7800        56
    36.8000        52
    36.8200        54
    36.8400        64
    36.8600        60
    36.8800        66
    36.9000        68
    36.9200        90
    36.9400        88
    36.9600       118
    36.9800       120
    37.0000       108
    37.0200       118
    37.0400        86
    37.0600        80
    37.0800        70
    37.1000        70
    37.1200        44
    37.1400        42
    37.1600        40
    37.1800        30
    37.2000        30
    37.2200        26
    37.2400        32
    37.2600        22
    37.2800        22
    37.3000        36
    37.3200        40
    37.3400        24
    37.3600        26
    37.3800        28
    37.4000        22
    37.4200        26
    37.4400        28
    37.4600        22
    37.4800        22
    37.5000        30
    37.5200        32
    37.5400        24
    37.5600        30
    37.5800        26
    37.6000        20
    37.6200        22
    37.6400        40
    37.6600        44
    37.6800        48
    37.7000        36
    37.7200        40
    37.7400        56
    37.7600        60
    37.7800        60
    37.8000        62
    37.8200        60
    37.8400        52
    37.8600        62
    37.8800        64
    37.9000        54
    37.9200        36
    37.9400        34
    37.9600        44
    37.9800        42
    38.0000        20
    38.0200        38
    38.0400        24
    38.0600        40
    38.0800        26
    38.1000        32
    38.1200        30
    38.1400        38
    38.1600        40
    38.1800        28
    38.2000        40
    38.2200        36
    38.2400        36
    38.2600        34
    38.2800        46
    38.3000        38
    38.3200        36
    38.3400        36
    38.3600        40
    38.3800        30
    38.4000        30
    38.4200        50
    38.4400        54
    38.4600        44
    38.4800        56
    38.5000        56
    38.5200        60
    38.5400        66
    38.5600        70
    38.5800        98
    38.6000        88
    38.6200       116
    38.6400       116
    38.6600       124
    38.6800        86
    38.7000        98
    38.7200        92
    38.7400        98
    38.7600        84
    38.7800        70
    38.8000        70
    38.8200        72
    38.8400        76
    38.8600        76
    38.8800        42
    38.9000        50
    38.9200        58
    38.9400        62
    38.9600        56
    38.9800        74
    39.0000        78
    39.0200        92
    39.0400        88
    39.0600       100
    39.0800       150
    39.1000       170
    39.1200       136
    39.1400        96
    39.1600        90
    39.1800        88
    39.2000       112
    39.2200        76
    39.2400        78
    39.2600        52
    39.2800        34
    39.3000        62
    39.3200        58
    39.3400        58
    39.3600        56
    39.3800        60
    39.4000        62
    39.4200        84
    39.4400       102
    39.4600       136
    39.4800       150
    39.5000       100
    39.5200        98
    39.5400       100
    39.5600       104
    39.5800       152
    39.6000       112
    39.6200        80
    39.6400        90
    39.6600        80
    39.6800        54
    39.7000        58
    39.7200        48
    39.7400        38
    39.7600        60
    39.7800        46
    39.8000        46
    39.8200        56
    39.8400        60
    39.8600        70
    39.8800        68
    39.9000        68
    39.9200        62
    39.9400        78
    39.9600        58
    39.9800        78
    40.0000        74
    40.0200        56
    40.0400        50
    40.0600        58
    40.0800        48
    40.1000        50
    40.1200        44
    40.1400        44
    40.1600        32
    40.1800        30
    40.2000        40
    40.2200        32
    40.2400        40
    40.2600        52
    40.2800        36
    40.3000        38
    40.3200        46
    40.3400        48
    40.3600        60
    40.3800        50
    40.4000        42
    40.4200        54
    40.4400        74
    40.4600        94
    40.4800       128
    40.5000       124
    40.5200       148
    40.5400       126
    40.5600       144
    40.5800       156
    40.6000       192
    40.6200       254
    40.6400       290
    40.6600       390
    40.6800       508
    40.7000       652
    40.7200       760
    40.7400       764
    40.7600       676
    40.7800       534
    40.8000       448
    40.8200       448
    40.8400       368
    40.8600       332
    40.8800       246
    40.9000       162
    40.9200       158
    40.9400       102
    40.9600       102
    40.9800       100
    41.0000        74
    41.0200       102
    41.0400       102
    41.0600       124
    41.0800       116
    41.1000        76
    41.1200        76
    41.1400        62
    41.1600        62
    41.1800        74
    41.2000        48
    41.2200        40
    41.2400        52
    41.2600        36
    41.2800        30
    41.3000        36
    41.3200        50
    41.3400        42
    41.3600        50
    41.3800        52
    41.4000        40
    41.4200        60
    41.4400        66
    41.4600        64
    41.4800        66
    41.5000        76
    41.5200        62
    41.5400        56
    41.5600        54
    41.5800        42
    41.6000        48
    41.6200        34
    41.6400        52
    41.6600        28
    41.6800        38
    41.7000        28
    41.7200        32
    41.7400        34
    41.7600        26
    41.7800        32
    41.8000        44
    41.8200        44
    41.8400        40
    41.8600        26
    41.8800        34
    41.9000        42
    41.9200        38
    41.9400        50
    41.9600        48
    41.9800        52
    42.0000        64
    42.0200        40
    42.0400        46
    42.0600        48
    42.0800        48
    42.1000        38
    42.1200        42
    42.1400        30
    42.1600        32
    42.1800        28
    42.2000        36
    42.2200        24
    42.2400        40
    42.2600        34
    42.2800        20
    42.3000        26
    42.3200        28
    42.3400        22
    42.3600        28
    42.3800        14
    42.4000        28
    42.4200        26
    42.4400        34
    42.4600        24
    42.4800        46
    42.5000        34
    42.5200        28
    42.5400        30
    42.5600        34
    42.5800        48
    42.6000        62
    42.6200        80
    42.6400        80
    42.6600        68
    42.6800        62
    42.7000        72
    42.7200        94
    42.7400        84
    42.7600        76
    42.7800        52
    42.8000        60
    42.8200        58
    42.8400        56
    42.8600        38
    42.8800        32
    42.9000        28
    42.9200        34
    42.9400        30
    42.9600        24
    42.9800        28
    43.0000        24
    43.0200        26
    43.0400        28
    43.0600        26
    43.0800        42
    43.1000        36
    43.1200        34
    43.1400        26
    43.1600        34
    43.1800        34
    43.2000        44
    43.2200        44
    43.2400        54
    43.2600        68
    43.2800        60
    43.3000        64
    43.3200        70
    43.3400        80
    43.3600        78
    43.3800        76
    43.4000        90
    43.4200       108
    43.4400        76
    43.4600        84
    43.4800        72
    43.5000        64
    43.5200        86
    43.5400        76
    43.5600       112
    43.5800       144
    43.6000       124
    43.6200        94
    43.6400        80
    43.6600        94
    43.6800        80
    43.7000       106
    43.7200        76
    43.7400        68
    43.7600        56
    43.7800        58
    43.8000        44
    43.8200        40
    43.8400        48
    43.8600        62
    43.8800        54
    43.9000        56
    43.9200        52
    43.9400        54
    43.9600        58
    43.9800        54
    44.0000        52
    44.0200        56
    44.0400        58
    44.0600        58
    44.0800        56
    44.1000        66
    44.1200        60
    44.1400        54
    44.1600        46
    44.1800        54
    44.2000        66
    44.2200        74
    44.2400        70
    44.2600        60
    44.2800        54
    44.3000        44
    44.3200        60
    44.3400        64
    44.3600        60
    44.3800        62
    44.4000        86
    44.4200       104
    44.4400       124
    44.4600       128
    44.4800       160
    44.5000       148
    44.5200        82
    44.5400        76
    44.5600        80
    44.5800       102
    44.6000        78
    44.6200        72
    44.6400        44
    44.6600        40
    44.6800        22
    44.7000        28
    44.7200        42
    44.7400        32
    44.7600        36
    44.7800        32
    44.8000        36
    44.8200        28
    44.8400        34
    44.8600        30
    44.8800        42
    44.9000        32
    44.9200        32
    44.9400        24
    44.9600        24
    44.9800        32
    45.0000        34
    45.0200        28
    45.0400        24
    45.0600        28
    45.0800        30
    45.1000        24
    45.1200        30
    45.1400        26
    45.1600        26
    45.1800        28
    45.2000        28
    45.2200        42
    45.2400        36
    45.2600        44
    45.2800        62
    45.3000        62
    45.3200        88
    45.3400        62
    45.3600        70
    45.3800        66
    45.4000        48
    45.4200        64
    45.4400        56
    45.4600        54
    45.4800        54
    45.5000        26
    45.5200        34
    45.5400        32
    45.5600        28
    45.5800        34
    45.6000        26
    45.6200        38
    45.6400        20
    45.6600        20
    45.6800        40
    45.7000        30
    45.7200        36
    45.7400        34
    45.7600        16
    45.7800        30
    45.8000        26
    45.8200        34
    45.8400        30
    45.8600        30
    45.8800        28
    45.9000        22
    45.9200        28
    45.9400        24
    45.9600        34
    45.9800        36
    46.0000        24
    46.0200        28
    46.0400        34
    46.0600        30
    46.0800        24
    46.1000        26
    46.1200        40
    46.1400        50
    46.1600        50
    46.1800        88
    46.2000       108
    46.2200       102
    46.2400       102
    46.2600        96
    46.2800        58
    46.3000        66
    46.3200        68
    46.3400        78
    46.3600        72
    46.3800        54
    46.4000        54
    46.4200        50
    46.4400        42
    46.4600        32
    46.4800        34
    46.5000        36
    46.5200        52
    46.5400        44
    46.5600        48
    46.5800        50
    46.6000        54
    46.6200        38
    46.6400        34
    46.6600        30
    46.6800        38
    46.7000        42
    46.7200        44
    46.7400        34
    46.7600        24
    46.7800        22
    46.8000        20
    46.8200        32
    46.8400        26
    46.8600        20
    46.8800        26
    46.9000        22
    46.9200        32
    46.9400        34
    46.9600        26
    46.9800        34
    47.0000        20
    47.0200        26
    47.0400        26
    47.0600        36
    47.0800        28
    47.1000        18
    47.1200        32
    47.1400        28
    47.1600        30
    47.1800        30
    47.2000        40
    47.2200        42
    47.2400        34
    47.2600        42
    47.2800        36
    47.3000        30
    47.3200        18
    47.3400        42
    47.3600        34
    47.3800        38
    47.4000        36
    47.4200        44
    47.4400        56
    47.4600        48
    47.4800        58
    47.5000        60
    47.5200        82
    47.5400        78
    47.5600        76
    47.5800        94
    47.6000        90
    47.6200        88
    47.6400        74
    47.6600        80
    47.6800        54
    47.7000        60
    47.7200        72
    47.7400        86
    47.7600        86
    47.7800       110
    47.8000       136
    47.8200       104
    47.8400        74
    47.8600        82
    47.8800        74
    47.9000        84
    47.9200       102
    47.9400        86
    47.9600        60
    47.9800        70
    48.0000        56
    48.0200        42
    48.0400        38
    48.0600        26
    48.0800        40
    48.1000        42
    48.1200        40
    48.1400        38
    48.1600        44
    48.1800        44
    48.2000        78
    48.2200        66
    48.2400        76
    48.2600       110
    48.2800       118
    48.3000       184
    48.3200       154
    48.3400       128
    48.3600       124
    48.3800       128
    48.4000       116
    48.4200       110
    48.4400       102
    48.4600       116
    48.4800       132
    48.5000       266
    48.5200       396
    48.5400       458
    48.5600       388
    48.5800       236
    48.6000       200
    48.6200       180
    48.6400       254
    48.6600       352
    48.6800       336
    48.7000       232
    48.7200       164
    48.7400       164
    48.7600       142
    48.7800       166
    48.8000       190
    48.8200       238
    48.8400       326
    48.8600       324
    48.8800       308
    48.9000       218
    48.9200       160
    48.9400       164
    48.9600       190
    48.9800       182
    49.0000       136
    49.0200       144
    49.0400       100
    49.0600        82
    49.0800        58
    49.1000        40
    49.1200        44
    49.1400        34
    49.1600        42
    49.1800        38
    49.2000        32
    49.2200        48
    49.2400        34
    49.2600        52
    49.2800        52
    49.3000        44
    49.3200        42
    49.3400        62
    49.3600        52
    49.3800        52
    49.4000        52
    49.4200        38
    49.4400        46
    49.4600        34
    49.4800        46
    49.5000        36
    49.5200        46
    49.5400        50
    49.5600        42
    49.5800        34
    49.6000        26
    49.6200        32
    49.6400        30
    49.6600        32
    49.6800        34
    49.7000        38
    49.7200        40
    49.7400        42
    49.7600        42
    49.7800        42
    49.8000        50
    49.8200        66
    49.8400        68
    49.8600        84
    49.8800        74
    49.9000       140
    49.9200       184
    49.9400       226
    49.9600       272
    49.9800       260
    50.0000       190
    50.0200       144
    50.0400       134
    50.0600       170
    50.0800       188
    50.1000       210
    50.1200       156
    50.1400       140
    50.1600        94
    50.1800       116
    50.2000       102
    50.2200        92
    50.2400       102
    50.2600       112
    50.2800       126
    50.3000        98
    50.3200       120
    50.3400       124
    50.3600       108
    50.3800       104
    50.4000       100
    50.4200        90
    50.4400        94
    50.4600        92
    50.4800        72
    50.5000        76
    50.5200        74
    50.5400        78
    50.5600        56
    50.5800        46
    50.6000        44
    50.6200        44
    50.6400        36
    50.6600        52
    50.6800        30
    50.7000        38
    50.7200        26
    50.7400        30
    50.7600        24
    50.7800        46
    50.8000        24
    50.8200        42
    50.8400        42
    50.8600        38
    50.8800        38
    50.9000        42
    50.9200        38
    50.9400        50
    50.9600        36
    50.9800        42
    51.0000        22
    51.0200        26
    51.0400        36
    51.0600        38
    51.0800        18
    51.1000        28
    51.1200        32
    51.1400        34
    51.1600        28
    51.1800        28
    51.2000        40
    51.2200        36
    51.2400        40
    51.2600        48
    51.2800        44
    51.3000        52
    51.3200        44
    51.3400        48
    51.3600        40
    51.3800        38
    51.4000        44
    51.4200        50
    51.4400        50
    51.4600        86
    51.4800        98
    51.5000       126
    51.5200       168
    51.5400       190
    51.5600       202
    51.5800       188
    51.6000       128
    51.6200       126
    51.6400       108
    51.6600       136
    51.6800       136
    51.7000       108
    51.7200        96
    51.7400        74
    51.7600        84
    51.7800        70
    51.8000        72
    51.8200        58
    51.8400        84
    51.8600        84
    51.8800       106
    51.9000       102
    51.9200       152
    51.9400       150
    51.9600       154
    51.9800       106
    52.0000       138
    52.0200       112
    52.0400       108
    52.0600        96
    52.0800       118
    52.1000       128
    52.1200        86
    52.1400        96
    52.1600        76
    52.1800        98
    52.2000       108
    52.2200       112
    52.2400       112
    52.2600       130
    52.2800        80
    52.3000        74
    52.3200        56
    52.3400        62
    52.3600        46
    52.3800        84
    52.4000        82
    52.4200        44
    52.4400        40
    52.4600        42
    52.4800        36
    52.5000        34
    52.5200        42
    52.5400        46
    52.5600        34
    52.5800        24
    52.6000        18
    52.6200        26
    52.6400        38
    52.6600        30
    52.6800        28
    52.7000        34
    52.7200        42
    52.7400        42
    52.7600        38
    52.7800        24
    52.8000        30
    52.8200        34
    52.8400        38
    52.8600        40
    52.8800        54
    52.9000        60
    52.9200        60
    52.9400        70
    52.9600       112
    52.9800       120
    53.0000       116
    53.0200       130
    53.0400       144
    53.0600       118
    53.0800       136
    53.1000        66
    53.1200        76
    53.1400        70
    53.1600        68
    53.1800        82
    53.2000        88
    53.2200        68
    53.2400        36
    53.2600        22
    53.2800        20
    53.3000        34
    53.3200        26
    53.3400        26
    53.3600        28
    53.3800        22
    53.4000        22
    53.4200        24
    53.4400        38
    53.4600        18
    53.4800        22
    53.5000        22
    53.5200        16
    53.5400        18
    53.5600        28
    53.5800        28
    53.6000        26
    53.6200        32
    53.6400        26
    53.6600        24
    53.6800        24
    53.7000        28
    53.7200        30
    53.7400        16
    53.7600        18
    53.7800        26
    53.8000        28
    53.8200        30
    53.8400        20
    53.8600        18
    53.8800        32
    53.9000        22
    53.9200        32
    53.9400        30
    53.9600        36
    53.9800        24
    54.0000        28
    54.0200        26
    54.0400        40
    54.0600        30
    54.0800        32
    54.1000        32
    54.1200        36
    54.1400        32
    54.1600        36
    54.1800        50
    54.2000        50
    54.2200        40
    54.2400        44
    54.2600        42
    54.2800        38
    54.3000        38
    54.3200        50
    54.3400        44
    54.3600        24
    54.3800        36
    54.4000        34
    54.4200        28
    54.4400        40
    54.4600        26
    54.4800        26
    54.5000        26
    54.5200        38
    54.5400        48
    54.5600        46
    54.5800        96
    54.6000       100
    54.6200       104
    54.6400        92
    54.6600        86
    54.6800        70
    54.7000        70
    54.7200        58
    54.7400        70
    54.7600        68
    54.7800        56
    54.8000        44
    54.8200        56
    54.8400        42
    54.8600        40
    54.8800        40
    54.9000        46
    54.9200        40
    54.9400        34
    54.9600        46
    54.9800        38
    55.0000        40
    55.0200        60
    55.0400        54
    55.0600        56
    55.0800        52
    55.1000        60
    55.1200        68
    55.1400        82
    55.1600        96
    55.1800        78
    55.2000        96
    55.2200       102
    55.2400        96
    55.2600        94
    55.2800       130
    55.3000       132
    55.3200       132
    55.3400       118
    55.3600       100
    55.3800       102
    55.4000        60
    55.4200        82
    55.4400        72
    55.4600        76
    55.4800        74
    55.5000        70
    55.5200        58
    55.5400        48
    55.5600        36
    55.5800        44
    55.6000        38
    55.6200        40
    55.6400        44
    55.6600        30
    55.6800        38
    55.7000        38
    55.7200        30
    55.7400        44
    55.7600        38
    55.7800        38
    55.8000        54
    55.8200        64
    55.8400        76
    55.8600        88
    55.8800        96
    55.9000        86
    55.9200       104
    55.9400        98
    55.9600        84
    55.9800        76
    56.0000        64
    56.0200        88
    56.0400        82
    56.0600        60
    56.0800        60
    56.1000        66
    56.1200        82
    56.1400        86
    56.1600        88
    56.1800        68
    56.2000        54
    56.2200        76
    56.2400        72
    56.2600        76
    56.2800        72
    56.3000        68
    56.3200        52
    56.3400        60
    56.3600        50
    56.3800        58
    56.4000        60
    56.4200        62
    56.4400        70
    56.4600        42
    56.4800        42
    56.5000        50
    56.5200        68
    56.5400        58
    56.5600        52
    56.5800        66
    56.6000        58
    56.6200        74
    56.6400        66
    56.6600        72
    56.6800       130
    56.7000       156
    56.7200       140
    56.7400       158
    56.7600       164
    56.7800       210
    56.8000       298
    56.8200       240
    56.8400       192
    56.8600       164
    56.8800       148
    56.9000       122
    56.9200       154
    56.9400       146
    56.9600       164
    56.9800       104
    57.0000        98
    57.0200        94
    57.0400        84
    57.0600        74
    57.0800        36
    57.1000        62
    57.1200        58
    57.1400        46
    57.1600        60
    57.1800        44
    57.2000        38
    57.2200        64
    57.2400        56
    57.2600        50
    57.2800        40
    57.3000        30
    57.3200        54
    57.3400        72
    57.3600        68
    57.3800        78
    57.4000        94
    57.4200        98
    57.4400       100
    57.4600        82
    57.4800        68
    57.5000        90
    57.5200        90
    57.5400        94
    57.5600        96
    57.5800       140
    57.6000       132
    57.6200       122
    57.6400       102
    57.6600       102
    57.6800        96
    57.7000        92
    57.7200       100
    57.7400        84
    57.7600       110
    57.7800       106
    57.8000        90
    57.8200        78
    57.8400        56
    57.8600        54
    57.8800        72
    57.9000        76
    57.9200        60
    57.9400        62
    57.9600        88
    57.9800        80
    58.0000        76
    58.0200        76
    58.0400        62
    58.0600        48
    58.0800        52
    58.1000        44
    58.1200        58
    58.1400        64
    58.1600        66
    58.1800        70
    58.2000        82
    58.2200        62
    58.2400        60
    58.2600        52
    58.2800        58
    58.3000        46
    58.3200        42
    58.3400        48
    58.3600        38
    58.3800        42
    58.4000        36
    58.4200        44
    58.4400        50
    58.4600        50
    58.4800        48
    58.5000        46
    58.5200        54
    58.5400        52
    58.5600        36
    58.5800        32
    58.6000        30
    58.6200        30
    58.6400        24
    58.6600        24
    58.6800        42
    58.7000        32
    58.7200        22
    58.7400        30
    58.7600        28
    58.7800        16
    58.8000        38
    58.8200        22
    58.8400        24
    58.8600        16
    58.8800        28
    58.9000        24
    58.9200        44
    58.9400        24
    58.9600        22
    58.9800        30
    59.0000        30
    59.0200        32
    59.0400        34
    59.0600        34
    59.0800        44
    59.1000        28
    59.1200        34
    59.1400        26
    59.1600        26
    59.1800        26
    59.2000        32
    59.2200        34
    59.2400        30
    59.2600        38
    59.2800        28
    59.3000        16
    59.3200        28
    59.3400        30
    59.3600        20
    59.3800        18
    59.4000        30
    59.4200        28
    59.4400        24
    59.4600        24
    59.4800        28
    59.5000        32
    59.5200        26
    59.5400        36
    59.5600        30
    59.5800        48
    59.6000        44
    59.6200        44
    59.6400        36
    59.6600        40
    59.6800        42
    59.7000        52
    59.7200        52
    59.7400        58
    59.7600        56
    59.7800        66
    59.8000        68
    59.8200        72
    59.8400        88
    59.8600        66
    59.8800        52
    59.9000        46
    59.9200        44
    59.9400        54
    59.9600        58
    59.9800        50
    60.0000        50
    60.0200        50
    60.0400        36
    60.0600        40
    60.0800        28
    60.1000        32
    60.1200        30
    60.1400        26
    60.1600        32
    60.1800        46
    60.2000        58
    60.2200        38
    60.2400        48
    60.2600        48
    60.2800        64
    60.3000        50
    60.3200        58
    60.3400        48
    60.3600        48
    60.3800        44
    60.4000        52
    60.4200        52
    60.4400        36
    60.4600        36
    60.4800        36
    60.5000        32
    60.5200        34
    60.5400        56
    60.5600        38
    60.5800        54
    60.6000        46
    60.6200        48
    60.6400        40
    60.6600        44
    60.6800        44
    60.7000        52
    60.7200        54
    60.7400        46
    60.7600        34
    60.7800        44
    60.8000        34
    60.8200        42
    60.8400        52
    60.8600        46
    60.8800        46
    60.9000        42
    60.9200        36
    60.9400        36
    60.9600        38
    60.9800        38
    61.0000        36
    61.0200        46
    61.0400        32
    61.0600        34
    61.0800        38
    61.1000        32
    61.1200        28
    61.1400        20
    61.1600        40
    61.1800        34
    61.2000        30
    61.2200        28
    61.2400        30
    61.2600        34
    61.2800        24
    61.3000        20
    61.3200        34
    61.3400        32
    61.3600        34
    61.3800        36
    61.4000        36
    61.4200        28
    61.4400        34
    61.4600        34
    61.4800        28
    61.5000        30
    61.5200        24
    61.5400        20
    61.5600        16
    61.5800        34
    61.6000        40
    61.6200        32
    61.6400        42
    61.6600        34
    61.6800        34
    61.7000        36
    61.7200        34
    61.7400        48
    61.7600        38
    61.7800        56
    61.8000        60
    61.8200        94
    61.8400        98
    61.8600        96
    61.8800        70
    61.9000        70
    61.9200        48
    61.9400        58
    61.9600        58
    61.9800        42
    62.0000        62
    62.0200        82
    62.0400        66
    62.0600        58
    62.0800        48
    62.1000        42
    62.1200        34
    62.1400        34
    62.1600        36
    62.1800        34
    62.2000        38
    62.2200        40
    62.2400        28
    62.2600        20
    62.2800        36
    62.3000        28
    62.3200        40
    62.3400        42
    62.3600        30
    62.3800        34
    62.4000        28
    62.4200        44
    62.4400        60
    62.4600        84
    62.4800        76
    62.5000        96
    62.5200        92
    62.5400        90
    62.5600        88
    62.5800        76
    62.6000        76
    62.6200        70
    62.6400        82
    62.6600        70
    62.6800        80
    62.7000        68
    62.7200        86
    62.7400        64
    62.7600        58
    62.7800        48
    62.8000        44
    62.8200        50
    62.8400        48
    62.8600        60
    62.8800        44
    62.9000        70
    62.9200        76
    62.9400       108
    62.9600        98
    62.9800        92
    63.0000       106
    63.0200       104
    63.0400        76
    63.0600        54
    63.0800        82
    63.1000        78
    63.1200        88
    63.1400        92
    63.1600       108
    63.1800       160
    63.2000       162
    63.2200       162
    63.2400       190
    63.2600       146
    63.2800       110
    63.3000        86
    63.3200        78
    63.3400        54
    63.3600        92
    63.3800        84
    63.4000       106
    63.4200        96
    63.4400        92
    63.4600        70
    63.4800        74
    63.5000        62
    63.5200        48
    63.5400        46
    63.5600        52
    63.5800        38
    63.6000        32
    63.6200        42
    63.6400        32
    63.6600        40
    63.6800        36
    63.7000        26
    63.7200        30
    63.7400        34
    63.7600        28
    63.7800        34
    63.8000        30
    63.8200        28
    63.8400        40
    63.8600        30
    63.8800        44
    63.9000        28
    63.9200        36
    63.9400        24
    63.9600        28
    63.9800        26
    64.0000        34
    64.0200        30
    64.0400        24
    64.0600        32
    64.0800        24
    64.1000        22
    64.1200        20
    64.1400        28
    64.1600        28
    64.1800        20
    64.2000        24
    64.2200        30
    64.2400        36
    64.2600        38
    64.2800        24
    64.3000        28
    64.3200        36
    64.3400        22
    64.3600        34
    64.3800        24
    64.4000        18
    64.4200        28
    64.4400        32
    64.4600        22
    64.4800        28
    64.5000        28
    64.5200        28
    64.5400        34
    64.5600        28
    64.5800        30
    64.6000        34
    64.6200        22
    64.6400        22
    64.6600        30
    64.6800        46
    64.7000        30
    64.7200        28
    64.7400        40
    64.7600        44
    64.7800        44
    64.8000        48
    64.8200        66
    64.8400        74
    64.8600        68
    64.8800        80
    64.9000        88
    64.9200        76
    64.9400        66
    64.9600        72
    64.9800        58
    65.0000        60
