/////////////////////////////////////////////////////////////////////////////////
/// Profile Data Ascii Dump (XRD)                                             ///
/////////////////////////////////////////////////////////////////////////////////

  Group     : Swayze
  Data      : GDS818
  File Name : GDS818.RAW

# Profile Datafile
          comment             = Palygorskite 
          date & time         = 08-04-01 06:17:01 

# Measurement Condition
    X-ray tube
          target              = Cu 
          voltage             = 40.0 (kV)
          current             = 30.0 (mA)
    Slits
          divergence slit     = 2.00000 (deg) 
          scatter slit        = 2.00000 (deg) 
          receiving slit      = 0.15000 (mm)  
    Scanning
          drive axis          = Theta-2Theta 
          scan range          =    4.000 -   65.000 
          scan mode           = Continuous Scan 
          scan speed          =   2.0000 (deg/min) 
          sampling pitch      =   0.0200 (deg) 
          preset time         =   0.60 (sec) 

# Data      [ Total No. = 3051 ]
  <2Theta>   <   I   >
     4.0000       234
     4.0200       242
     4.0400       238
     4.0600       238
     4.0800       224
     4.1000       176
     4.1200       204
     4.1400       190
     4.1600       216
     4.1800       222
     4.2000       200
     4.2200       240
     4.2400       206
     4.2600       176
     4.2800       212
     4.3000       194
     4.3200       202
     4.3400       192
     4.3600       222
     4.3800       194
     4.4000       212
     4.4200       210
     4.4400       188
     4.4600       220
     4.4800       180
     4.5000       200
     4.5200       204
     4.5400       186
     4.5600       192
     4.5800       210
     4.6000       216
     4.6200       192
     4.6400       202
     4.6600       200
     4.6800       182
     4.7000       180
     4.7200       188
     4.7400       192
     4.7600       204
     4.7800       178
     4.8000       184
     4.8200       176
     4.8400       200
     4.8600       180
     4.8800       170
     4.9000       154
     4.9200       182
     4.9400       178
     4.9600       188
     4.9800       202
     5.0000       192
     5.0200       194
     5.0400       190
     5.0600       158
     5.0800       180
     5.1000       176
     5.1200       190
     5.1400       196
     5.1600       188
     5.1800       188
     5.2000       182
     5.2200       194
     5.2400       188
     5.2600       150
     5.2800       200
     5.3000       176
     5.3200       194
     5.3400       158
     5.3600       186
     5.3800       174
     5.4000       172
     5.4200       182
     5.4400       168
     5.4600       166
     5.4800       176
     5.5000       184
     5.5200       186
     5.5400       192
     5.5600       192
     5.5800       166
     5.6000       172
     5.6200       176
     5.6400       182
     5.6600       142
     5.6800       180
     5.7000       182
     5.7200       176
     5.7400       168
     5.7600       162
     5.7800       200
     5.8000       178
     5.8200       166
     5.8400       178
     5.8600       178
     5.8800       180
     5.9000       164
     5.9200       176
     5.9400       170
     5.9600       166
     5.9800       172
     6.0000       174
     6.0200       182
     6.0400       178
     6.0600       186
     6.0800       158
     6.1000       172
     6.1200       182
     6.1400       174
     6.1600       176
     6.1800       164
     6.2000       178
     6.2200       174
     6.2400       174
     6.2600       146
     6.2800       180
     6.3000       164
     6.3200       164
     6.3400       172
     6.3600       188
     6.3800       178
     6.4000       140
     6.4200       160
     6.4400       164
     6.4600       154
     6.4800       166
     6.5000       162
     6.5200       172
     6.5400       160
     6.5600       168
     6.5800       162
     6.6000       166
     6.6200       182
     6.6400       154
     6.6600       166
     6.6800       146
     6.7000       152
     6.7200       160
     6.7400       162
     6.7600       134
     6.7800       152
     6.8000       134
     6.8200       134
     6.8400       138
     6.8600       162
     6.8800       140
     6.9000       132
     6.9200       128
     6.9400       130
     6.9600       144
     6.9800       138
     7.0000       140
     7.0200       144
     7.0400       128
     7.0600       158
     7.0800       140
     7.1000       154
     7.1200       134
     7.1400       158
     7.1600       146
     7.1800       158
     7.2000       174
     7.2200       150
     7.2400       124
     7.2600       144
     7.2800       144
     7.3000       136
     7.3200       172
     7.3400       138
     7.3600       182
     7.3800       182
     7.4000       170
     7.4200       144
     7.4400       160
     7.4600       182
     7.4800       176
     7.5000       162
     7.5200       150
     7.5400       168
     7.5600       214
     7.5800       194
     7.6000       170
     7.6200       188
     7.6400       188
     7.6600       170
     7.6800       194
     7.7000       214
     7.7200       206
     7.7400       240
     7.7600       192
     7.7800       228
     7.8000       232
     7.8200       248
     7.8400       232
     7.8600       254
     7.8800       260
     7.9000       270
     7.9200       274
     7.9400       300
     7.9600       316
     7.9800       326
     8.0000       336
     8.0200       384
     8.0400       382
     8.0600       416
     8.0800       404
     8.1000       438
     8.1200       402
     8.1400       472
     8.1600       496
     8.1800       532
     8.2000       574
     8.2200       600
     8.2400       670
     8.2600       678
     8.2800       788
     8.3000       828
     8.3200       872
     8.3400       960
     8.3600      1054
     8.3800      1132
     8.4000      1200
     8.4200      1248
     8.4400      1382
     8.4600      1344
     8.4800      1340
     8.5000      1306
     8.5200      1328
     8.5400      1220
     8.5600      1150
     8.5800      1022
     8.6000       950
     8.6200       822
     8.6400       770
     8.6600       628
     8.6800       568
     8.7000       486
     8.7200       454
     8.7400       388
     8.7600       326
     8.7800       292
     8.8000       236
     8.8200       246
     8.8400       210
     8.8600       214
     8.8800       210
     8.9000       200
     8.9200       158
     8.9400       166
     8.9600       160
     8.9800       178
     9.0000       162
     9.0200       130
     9.0400       144
     9.0600       162
     9.0800       136
     9.1000       146
     9.1200       150
     9.1400       124
     9.1600       130
     9.1800       144
     9.2000       154
     9.2200       148
     9.2400       152
     9.2600       114
     9.2800       150
     9.3000       136
     9.3200       150
     9.3400       146
     9.3600       144
     9.3800       154
     9.4000       132
     9.4200       134
     9.4400       160
     9.4600       122
     9.4800       124
     9.5000       122
     9.5200       138
     9.5400       128
     9.5600       128
     9.5800       104
     9.6000       160
     9.6200       128
     9.6400       134
     9.6600       124
     9.6800       132
     9.7000       144
     9.7200       118
     9.7400       132
     9.7600       108
     9.7800       114
     9.8000       116
     9.8200       136
     9.8400       120
     9.8600       122
     9.8800       136
     9.9000       112
     9.9200       128
     9.9400       102
     9.9600       120
     9.9800       116
    10.0000       108
    10.0200       120
    10.0400       112
    10.0600       116
    10.0800        98
    10.1000       126
    10.1200       122
    10.1400       104
    10.1600       104
    10.1800       112
    10.2000       104
    10.2200        94
    10.2400       108
    10.2600       118
    10.2800       122
    10.3000        92
    10.3200       120
    10.3400       104
    10.3600       108
    10.3800       104
    10.4000       114
    10.4200       102
    10.4400        98
    10.4600        98
    10.4800       116
    10.5000       110
    10.5200        98
    10.5400       108
    10.5600        94
    10.5800       116
    10.6000       108
    10.6200       110
    10.6400        98
    10.6600        98
    10.6800       104
    10.7000       116
    10.7200        86
    10.7400       100
    10.7600       126
    10.7800        96
    10.8000       110
    10.8200       110
    10.8400       102
    10.8600       106
    10.8800       100
    10.9000       110
    10.9200       100
    10.9400       108
    10.9600        92
    10.9800        98
    11.0000        88
    11.0200        94
    11.0400        98
    11.0600        98
    11.0800        82
    11.1000       100
    11.1200        96
    11.1400        92
    11.1600        82
    11.1800       100
    11.2000        84
    11.2200        90
    11.2400       110
    11.2600        72
    11.2800        92
    11.3000        74
    11.3200        82
    11.3400        78
    11.3600        72
    11.3800        86
    11.4000        94
    11.4200       104
    11.4400       100
    11.4600        76
    11.4800       128
    11.5000        86
    11.5200        88
    11.5400        96
    11.5600       108
    11.5800        68
    11.6000        84
    11.6200       102
    11.6400        86
    11.6600        64
    11.6800       106
    11.7000        96
    11.7200        94
    11.7400        74
    11.7600        90
    11.7800        86
    11.8000        80
    11.8200        90
    11.8400        94
    11.8600        80
    11.8800       100
    11.9000        84
    11.9200       106
    11.9400        90
    11.9600        86
    11.9800        92
    12.0000        94
    12.0200        82
    12.0400        80
    12.0600        74
    12.0800        88
    12.1000        84
    12.1200        78
    12.1400        84
    12.1600        92
    12.1800        66
    12.2000        92
    12.2200        88
    12.2400        82
    12.2600        64
    12.2800        88
    12.3000        96
    12.3200        94
    12.3400        74
    12.3600        82
    12.3800        88
    12.4000        80
    12.4200       100
    12.4400       100
    12.4600        80
    12.4800        82
    12.5000       100
    12.5200        86
    12.5400        74
    12.5600        74
    12.5800        70
    12.6000        90
    12.6200       106
    12.6400        88
    12.6600        74
    12.6800        76
    12.7000        66
    12.7200        72
    12.7400        82
    12.7600        80
    12.7800        84
    12.8000        70
    12.8200        72
    12.8400        76
    12.8600        84
    12.8800        76
    12.9000        88
    12.9200        62
    12.9400        72
    12.9600        82
    12.9800        76
    13.0000        82
    13.0200        76
    13.0400        78
    13.0600        78
    13.0800        84
    13.1000        86
    13.1200        98
    13.1400        60
    13.1600        84
    13.1800        70
    13.2000        84
    13.2200        88
    13.2400        84
    13.2600       116
    13.2800        88
    13.3000       106
    13.3200        92
    13.3400        86
    13.3600        72
    13.3800        96
    13.4000        92
    13.4200        90
    13.4400       106
    13.4600       100
    13.4800        98
    13.5000       104
    13.5200       114
    13.5400       112
    13.5600       124
    13.5800       112
    13.6000       118
    13.6200       144
    13.6400       128
    13.6600       150
    13.6800       158
    13.7000       180
    13.7200       186
    13.7400       202
    13.7600       198
    13.7800       204
    13.8000       224
    13.8200       244
    13.8400       276
    13.8600       256
    13.8800       270
    13.9000       286
    13.9200       274
    13.9400       294
    13.9600       282
    13.9800       252
    14.0000       260
    14.0200       234
    14.0400       248
    14.0600       212
    14.0800       184
    14.1000       190
    14.1200       146
    14.1400       160
    14.1600       146
    14.1800       134
    14.2000       130
    14.2200       118
    14.2400       112
    14.2600        88
    14.2800        98
    14.3000        96
    14.3200        92
    14.3400        88
    14.3600        82
    14.3800        78
    14.4000       100
    14.4200        82
    14.4400        82
    14.4600        70
    14.4800        76
    14.5000        66
    14.5200        84
    14.5400        70
    14.5600        84
    14.5800        52
    14.6000        84
    14.6200        86
    14.6400        70
    14.6600        80
    14.6800        76
    14.7000        82
    14.7200        78
    14.7400        86
    14.7600        62
    14.7800        68
    14.8000        78
    14.8200        86
    14.8400        70
    14.8600        60
    14.8800        54
    14.9000        60
    14.9200        76
    14.9400        82
    14.9600        78
    14.9800        58
    15.0000        62
    15.0200        70
    15.0400        78
    15.0600        74
    15.0800        72
    15.1000        76
    15.1200        72
    15.1400        66
    15.1600        72
    15.1800        72
    15.2000        56
    15.2200        62
    15.2400        58
    15.2600        56
    15.2800        58
    15.3000        82
    15.3200        66
    15.3400        70
    15.3600        42
    15.3800        72
    15.4000        70
    15.4200        68
    15.4400        68
    15.4600        64
    15.4800        74
    15.5000        62
    15.5200        66
    15.5400        72
    15.5600        76
    15.5800        58
    15.6000        66
    15.6200        74
    15.6400        80
    15.6600        50
    15.6800        78
    15.7000        56
    15.7200        60
    15.7400        60
    15.7600        62
    15.7800        80
    15.8000        60
    15.8200        68
    15.8400        54
    15.8600        80
    15.8800        82
    15.9000        82
    15.9200        74
    15.9400        72
    15.9600        64
    15.9800        70
    16.0000        76
    16.0200        88
    16.0400        82
    16.0600        98
    16.0800        94
    16.1000       100
    16.1200        90
    16.1400       102
    16.1600       112
    16.1800       112
    16.2000       110
    16.2200       104
    16.2400       122
    16.2600       160
    16.2800       182
    16.3000       150
    16.3200       214
    16.3400       204
    16.3600       218
    16.3800       188
    16.4000       194
    16.4200       214
    16.4400       196
    16.4600       178
    16.4800       176
    16.5000       140
    16.5200       142
    16.5400        98
    16.5600       120
    16.5800       114
    16.6000        92
    16.6200        82
    16.6400        72
    16.6600        90
    16.6800        78
    16.7000        60
    16.7200        72
    16.7400        80
    16.7600        78
    16.7800        72
    16.8000        64
    16.8200        76
    16.8400        54
    16.8600        62
    16.8800        66
    16.9000        54
    16.9200        62
    16.9400        56
    16.9600        72
    16.9800        68
    17.0000        62
    17.0200        74
    17.0400        80
    17.0600        56
    17.0800        46
    17.1000        64
    17.1200        60
    17.1400        56
    17.1600        62
    17.1800        66
    17.2000        68
    17.2200        68
    17.2400        46
    17.2600        68
    17.2800        68
    17.3000        64
    17.3200        66
    17.3400        58
    17.3600        54
    17.3800        60
    17.4000        66
    17.4200        56
    17.4400        64
    17.4600        80
    17.4800        48
    17.5000        64
    17.5200        56
    17.5400        50
    17.5600        68
    17.5800        78
    17.6000        82
    17.6200        78
    17.6400        68
    17.6600        82
    17.6800        66
    17.7000        76
    17.7200        46
    17.7400        78
    17.7600        70
    17.7800        66
    17.8000        68
    17.8200        68
    17.8400        56
    17.8600        58
    17.8800        72
    17.9000        54
    17.9200        70
    17.9400        66
    17.9600        66
    17.9800        64
    18.0000        62
    18.0200        58
    18.0400        64
    18.0600        54
    18.0800        58
    18.1000        68
    18.1200        58
    18.1400        50
    18.1600        58
    18.1800        68
    18.2000        60
    18.2200        50
    18.2400        50
    18.2600        68
    18.2800        66
    18.3000        60
    18.3200        58
    18.3400        56
    18.3600        66
    18.3800        64
    18.4000        68
    18.4200        70
    18.4400        48
    18.4600        74
    18.4800        54
    18.5000        64
    18.5200        66
    18.5400        68
    18.5600        62
    18.5800        66
    18.6000        70
    18.6200        60
    18.6400        64
    18.6600        64
    18.6800        54
    18.7000        96
    18.7200        78
    18.7400        66
    18.7600        58
    18.7800        68
    18.8000        72
    18.8200        58
    18.8400        60
    18.8600        74
    18.8800        64
    18.9000        62
    18.9200        78
    18.9400        60
    18.9600        60
    18.9800        62
    19.0000        64
    19.0200        62
    19.0400        66
    19.0600        64
    19.0800        54
    19.1000        64
    19.1200        62
    19.1400        76
    19.1600        68
    19.1800        70
    19.2000        66
    19.2200        60
    19.2400        82
    19.2600        70
    19.2800        82
    19.3000        84
    19.3200        68
    19.3400        72
    19.3600        84
    19.3800        86
    19.4000        68
    19.4200        96
    19.4400        76
    19.4600        92
    19.4800       108
    19.5000       112
    19.5200       122
    19.5400       126
    19.5600       124
    19.5800       152
    19.6000       142
    19.6200       172
    19.6400       184
    19.6600       212
    19.6800       240
    19.7000       224
    19.7200       288
    19.7400       294
    19.7600       308
    19.7800       354
    19.8000       356
    19.8200       418
    19.8400       428
    19.8600       368
    19.8800       326
    19.9000       334
    19.9200       290
    19.9400       246
    19.9600       226
    19.9800       198
    20.0000       182
    20.0200       146
    20.0400       132
    20.0600       122
    20.0800        94
    20.1000       106
    20.1200       114
    20.1400       112
    20.1600        86
    20.1800        88
    20.2000       100
    20.2200        96
    20.2400        88
    20.2600        82
    20.2800        80
    20.3000        90
    20.3200        94
    20.3400        84
    20.3600       120
    20.3800        98
    20.4000        92
    20.4200        92
    20.4400       108
    20.4600       106
    20.4800       116
    20.5000        96
    20.5200        86
    20.5400       110
    20.5600        84
    20.5800        88
    20.6000        98
    20.6200        82
    20.6400        90
    20.6600       106
    20.6800       112
    20.7000       120
    20.7200       104
    20.7400        74
    20.7600        92
    20.7800        94
    20.8000        90
    20.8200        96
    20.8400       102
    20.8600       116
    20.8800       108
    20.9000        96
    20.9200        96
    20.9400       106
    20.9600       120
    20.9800       134
    21.0000       134
    21.0200       134
    21.0400       136
    21.0600       122
    21.0800       136
    21.1000       148
    21.1200       164
    21.1400       184
    21.1600       170
    21.1800       182
    21.2000       170
    21.2200       186
    21.2400       184
    21.2600       228
    21.2800       216
    21.3000       238
    21.3200       210
    21.3400       214
    21.3600       220
    21.3800       200
    21.4000       214
    21.4200       218
    21.4400       180
    21.4600       216
    21.4800       158
    21.5000       172
    21.5200       164
    21.5400       146
    21.5600       136
    21.5800       148
    21.6000       150
    21.6200       148
    21.6400       136
    21.6600       128
    21.6800       114
    21.7000       122
    21.7200       108
    21.7400       100
    21.7600        94
    21.7800       102
    21.8000        82
    21.8200        82
    21.8400        86
    21.8600        80
    21.8800        78
    21.9000        74
    21.9200        82
    21.9400        86
    21.9600        68
    21.9800        72
    22.0000        82
    22.0200        84
    22.0400        92
    22.0600        76
    22.0800        62
    22.1000        66
    22.1200        72
    22.1400        80
    22.1600        72
    22.1800        82
    22.2000        80
    22.2200        68
    22.2400        84
    22.2600        62
    22.2800        60
    22.3000        70
    22.3200        72
    22.3400        80
    22.3600        70
    22.3800        80
    22.4000        66
    22.4200        64
    22.4400        94
    22.4600        58
    22.4800        54
    22.5000        74
    22.5200        60
    22.5400        78
    22.5600        76
    22.5800        72
    22.6000        64
    22.6200        80
    22.6400        72
    22.6600        62
    22.6800        52
    22.7000        66
    22.7200        76
    22.7400        62
    22.7600        70
    22.7800        48
    22.8000        68
    22.8200        46
    22.8400        56
    22.8600        68
    22.8800        52
    22.9000        60
    22.9200        60
    22.9400        66
    22.9600        52
    22.9800        52
    23.0000        56
    23.0200        48
    23.0400        68
    23.0600        80
    23.0800        54
    23.1000        48
    23.1200        50
    23.1400        52
    23.1600        50
    23.1800        58
    23.2000        68
    23.2200        62
    23.2400        56
    23.2600        52
    23.2800        68
    23.3000        54
    23.3200        56
    23.3400        50
    23.3600        58
    23.3800        64
    23.4000        52
    23.4200        46
    23.4400        64
    23.4600        54
    23.4800        60
    23.5000        74
    23.5200        54
    23.5400        54
    23.5600        64
    23.5800        48
    23.6000        56
    23.6200        52
    23.6400        60
    23.6600        62
    23.6800        64
    23.7000        54
    23.7200        54
    23.7400        38
    23.7600        54
    23.7800        68
    23.8000        52
    23.8200        50
    23.8400        58
    23.8600        54
    23.8800        60
    23.9000        46
    23.9200        50
    23.9400        66
    23.9600        52
    23.9800        60
    24.0000        66
    24.0200        48
    24.0400        68
    24.0600        72
    24.0800        74
    24.1000        80
    24.1200        90
    24.1400        88
    24.1600        94
    24.1800       114
    24.2000       112
    24.2200       112
    24.2400       134
    24.2600       128
    24.2800       126
    24.3000       152
    24.3200       152
    24.3400       148
    24.3600       152
    24.3800       142
    24.4000       148
    24.4200       142
    24.4400       100
    24.4600       134
    24.4800       118
    24.5000        92
    24.5200       102
    24.5400        72
    24.5600        78
    24.5800        68
    24.6000        82
    24.6200        78
    24.6400        62
    24.6600        58
    24.6800        48
    24.7000        46
    24.7200        42
    24.7400        54
    24.7600        64
    24.7800        46
    24.8000        60
    24.8200        50
    24.8400        54
    24.8600        56
    24.8800        56
    24.9000        58
    24.9200        44
    24.9400        62
    24.9600        54
    24.9800        40
    25.0000        40
    25.0200        60
    25.0400        58
    25.0600        54
    25.0800        52
    25.1000        48
    25.1200        58
    25.1400        54
    25.1600        44
    25.1800        52
    25.2000        54
    25.2200        64
    25.2400        50
    25.2600        58
    25.2800        64
    25.3000        42
    25.3200        56
    25.3400        54
    25.3600        44
    25.3800        56
    25.4000        52
    25.4200        56
    25.4400        54
    25.4600        56
    25.4800        48
    25.5000        54
    25.5200        64
    25.5400        56
    25.5600        52
    25.5800        40
    25.6000        48
    25.6200        66
    25.6400        66
    25.6600        76
    25.6800        50
    25.7000        52
    25.7200        56
    25.7400        70
    25.7600        72
    25.7800        84
    25.8000        76
    25.8200        82
    25.8400        80
    25.8600        74
    25.8800        88
    25.9000        64
    25.9200        76
    25.9400        78
    25.9600        62
    25.9800        78
    26.0000        58
    26.0200        70
    26.0400        60
    26.0600        56
    26.0800        74
    26.1000        62
    26.1200        70
    26.1400        70
    26.1600        42
    26.1800        76
    26.2000        52
    26.2200        60
    26.2400        68
    26.2600        64
    26.2800        62
    26.3000        50
    26.3200        74
    26.3400        54
    26.3600        70
    26.3800        90
    26.4000        84
    26.4200        78
    26.4400        74
    26.4600        78
    26.4800        78
    26.5000        82
    26.5200        84
    26.5400        70
    26.5600        82
    26.5800        80
    26.6000        98
    26.6200        76
    26.6400        86
    26.6600        86
    26.6800        78
    26.7000        90
    26.7200        90
    26.7400       112
    26.7600        80
    26.7800        82
    26.8000        76
    26.8200        76
    26.8400        78
    26.8600        86
    26.8800        84
    26.9000        68
    26.9200        80
    26.9400        76
    26.9600       106
    26.9800        92
    27.0000        84
    27.0200        94
    27.0400        74
    27.0600        92
    27.0800       108
    27.1000        92
    27.1200        98
    27.1400       114
    27.1600        92
    27.1800       102
    27.2000       124
    27.2200       110
    27.2400       104
    27.2600       142
    27.2800       134
    27.3000       124
    27.3200       130
    27.3400       138
    27.3600       174
    27.3800       164
    27.4000       158
    27.4200       158
    27.4400       146
    27.4600       142
    27.4800       120
    27.5000       174
    27.5200       198
    27.5400       150
    27.5600       164
    27.5800       182
    27.6000       172
    27.6200       172
    27.6400       180
    27.6600       188
    27.6800       206
    27.7000       224
    27.7200       212
    27.7400       204
    27.7600       202
    27.7800       212
    27.8000       220
    27.8200       232
    27.8400       242
    27.8600       268
    27.8800       258
    27.9000       236
    27.9200       256
    27.9400       286
    27.9600       282
    27.9800       286
    28.0000       316
    28.0200       324
    28.0400       318
    28.0600       354
    28.0800       352
    28.1000       342
    28.1200       328
    28.1400       344
    28.1600       346
    28.1800       340
    28.2000       320
    28.2200       296
    28.2400       312
    28.2600       250
    28.2800       266
    28.3000       210
    28.3200       236
    28.3400       220
    28.3600       172
    28.3800       164
    28.4000       156
    28.4200       138
    28.4400       112
    28.4600       108
    28.4800        94
    28.5000        98
    28.5200       100
    28.5400       104
    28.5600        62
    28.5800        96
    28.6000        80
    28.6200        80
    28.6400        92
    28.6600        90
    28.6800        72
    28.7000        72
    28.7200        68
    28.7400        54
    28.7600        64
    28.7800        70
    28.8000        68
    28.8200        76
    28.8400        68
    28.8600        58
    28.8800        52
    28.9000        50
    28.9200        70
    28.9400        62
    28.9600        68
    28.9800        70
    29.0000        58
    29.0200        56
    29.0400        56
    29.0600        58
    29.0800        72
    29.1000        66
    29.1200        60
    29.1400        62
    29.1600        58
    29.1800        80
    29.2000        48
    29.2200        70
    29.2400        52
    29.2600        56
    29.2800        68
    29.3000        58
    29.3200        46
    29.3400        60
    29.3600        60
    29.3800        60
    29.4000        70
    29.4200        44
    29.4400        64
    29.4600        80
    29.4800        60
    29.5000        68
    29.5200        62
    29.5400        68
    29.5600        60
    29.5800        88
    29.6000        68
    29.6200        56
    29.6400        58
    29.6600        82
    29.6800        74
    29.7000        70
    29.7200        80
    29.7400        82
    29.7600        70
    29.7800        74
    29.8000        70
    29.8200        72
    29.8400        68
    29.8600        74
    29.8800        70
    29.9000        80
    29.9200        88
    29.9400        90
    29.9600        80
    29.9800        90
    30.0000        78
    30.0200        66
    30.0400        78
    30.0600        74
    30.0800        82
    30.1000        80
    30.1200        68
    30.1400        60
    30.1600        76
    30.1800        54
    30.2000        58
    30.2200        56
    30.2400        60
    30.2600        62
    30.2800        56
    30.3000        68
    30.3200        58
    30.3400        54
    30.3600        58
    30.3800        46
    30.4000        46
    30.4200        58
    30.4400        66
    30.4600        58
    30.4800        40
    30.5000        52
    30.5200        48
    30.5400        44
    30.5600        70
    30.5800        40
    30.6000        40
    30.6200        44
    30.6400        22
    30.6600        36
    30.6800        40
    30.7000        40
    30.7200        38
    30.7400        30
    30.7600        50
    30.7800        32
    30.8000        52
    30.8200        48
    30.8400        42
    30.8600        42
    30.8800        40
    30.9000        30
    30.9200        46
    30.9400        34
    30.9600        50
    30.9800        44
    31.0000        42
    31.0200        44
    31.0400        50
    31.0600        48
    31.0800        42
    31.1000        36
    31.1200        46
    31.1400        50
    31.1600        50
    31.1800        40
    31.2000        42
    31.2200        28
    31.2400        38
    31.2600        34
    31.2800        32
    31.3000        38
    31.3200        38
    31.3400        34
    31.3600        34
    31.3800        52
    31.4000        38
    31.4200        42
    31.4400        38
    31.4600        44
    31.4800        32
    31.5000        32
    31.5200        44
    31.5400        44
    31.5600        40
    31.5800        28
    31.6000        38
    31.6200        50
    31.6400        28
    31.6600        38
    31.6800        34
    31.7000        44
    31.7200        42
    31.7400        30
    31.7600        26
    31.7800        36
    31.8000        28
    31.8200        40
    31.8400        40
    31.8600        44
    31.8800        32
    31.9000        46
    31.9200        34
    31.9400        34
    31.9600        32
    31.9800        34
    32.0000        30
    32.0200        40
    32.0400        40
    32.0600        24
    32.0800        34
    32.1000        44
    32.1200        44
    32.1400        26
    32.1600        36
    32.1800        46
    32.2000        36
    32.2200        34
    32.2400        32
    32.2600        40
    32.2800        36
    32.3000        34
    32.3200        30
    32.3400        32
    32.3600        40
    32.3800        36
    32.4000        50
    32.4200        42
    32.4400        34
    32.4600        40
    32.4800        44
    32.5000        46
    32.5200        52
    32.5400        46
    32.5600        30
    32.5800        40
    32.6000        40
    32.6200        48
    32.6400        44
    32.6600        46
    32.6800        48
    32.7000        52
    32.7200        52
    32.7400        44
    32.7600        60
    32.7800        64
    32.8000        58
    32.8200        70
    32.8400        62
    32.8600        58
    32.8800        56
    32.9000        58
    32.9200        58
    32.9400        58
    32.9600        44
    32.9800        58
    33.0000        56
    33.0200        64
    33.0400        54
    33.0600        62
    33.0800        58
    33.1000        42
    33.1200        70
    33.1400        52
    33.1600        46
    33.1800        56
    33.2000        52
    33.2200        50
    33.2400        50
    33.2600        48
    33.2800        56
    33.3000        56
    33.3200        54
    33.3400        46
    33.3600        60
    33.3800        34
    33.4000        50
    33.4200        56
    33.4400        46
    33.4600        42
    33.4800        40
    33.5000        44
    33.5200        44
    33.5400        50
    33.5600        62
    33.5800        46
    33.6000        52
    33.6200        54
    33.6400        46
    33.6600        62
    33.6800        36
    33.7000        58
    33.7200        62
    33.7400        72
    33.7600        74
    33.7800        50
    33.8000        52
    33.8200        72
    33.8400        82
    33.8600        68
    33.8800        80
    33.9000        74
    33.9200        88
    33.9400        88
    33.9600        92
    33.9800        78
    34.0000        86
    34.0200        90
    34.0400       100
    34.0600        92
    34.0800       106
    34.1000       130
    34.1200       106
    34.1400       102
    34.1600       114
    34.1800       108
    34.2000       108
    34.2200       114
    34.2400       118
    34.2600       114
    34.2800       134
    34.3000       136
    34.3200       122
    34.3400       124
    34.3600       132
    34.3800       154
    34.4000       120
    34.4200       126
    34.4400       142
    34.4600       128
    34.4800       134
    34.5000       146
    34.5200       182
    34.5400       170
    34.5600       162
    34.5800       184
    34.6000       182
    34.6200       164
    34.6400       198
    34.6600       192
    34.6800       174
    34.7000       194
    34.7200       194
    34.7400       160
    34.7600       188
    34.7800       190
    34.8000       174
    34.8200       164
    34.8400       152
    34.8600       174
    34.8800       158
    34.9000       176
    34.9200       164
    34.9400       150
    34.9600       162
    34.9800       162
    35.0000       184
    35.0200       180
    35.0400       192
    35.0600       168
    35.0800       160
    35.1000       190
    35.1200       162
    35.1400       156
    35.1600       168
    35.1800       162
    35.2000       134
    35.2200       140
    35.2400       140
    35.2600       130
    35.2800       138
    35.3000       120
    35.3200       122
    35.3400        94
    35.3600       140
    35.3800       138
    35.4000       132
    35.4200       152
    35.4400       158
    35.4600       164
    35.4800       136
    35.5000       152
    35.5200       136
    35.5400       186
    35.5600       158
    35.5800       172
    35.6000       184
    35.6200       192
    35.6400       192
    35.6600       198
    35.6800       152
    35.7000       194
    35.7200       184
    35.7400       184
    35.7600       174
    35.7800       156
    35.8000       160
    35.8200       150
    35.8400       136
    35.8600       138
    35.8800       158
    35.9000       132
    35.9200       136
    35.9400       100
    35.9600        94
    35.9800       114
    36.0000       102
    36.0200       106
    36.0400        76
    36.0600        80
    36.0800        82
    36.1000        76
    36.1200        66
    36.1400        68
    36.1600        60
    36.1800        52
    36.2000        76
    36.2200        62
    36.2400        72
    36.2600        62
    36.2800        74
    36.3000        62
    36.3200        42
    36.3400        64
    36.3600        66
    36.3800        54
    36.4000        62
    36.4200        48
    36.4400        60
    36.4600        42
    36.4800        56
    36.5000        40
    36.5200        50
    36.5400        46
    36.5600        38
    36.5800        60
    36.6000        46
    36.6200        38
    36.6400        48
    36.6600        58
    36.6800        42
    36.7000        40
    36.7200        42
    36.7400        38
    36.7600        42
    36.7800        42
    36.8000        32
    36.8200        34
    36.8400        32
    36.8600        32
    36.8800        44
    36.9000        40
    36.9200        40
    36.9400        32
    36.9600        48
    36.9800        46
    37.0000        32
    37.0200        34
    37.0400        46
    37.0600        34
    37.0800        40
    37.1000        40
    37.1200        28
    37.1400        32
    37.1600        28
    37.1800        36
    37.2000        30
    37.2200        24
    37.2400        46
    37.2600        32
    37.2800        38
    37.3000        26
    37.3200        32
    37.3400        30
    37.3600        30
    37.3800        30
    37.4000        32
    37.4200        44
    37.4400        38
    37.4600        40
    37.4800        28
    37.5000        30
    37.5200        38
    37.5400        38
    37.5600        36
    37.5800        28
    37.6000        42
    37.6200        36
    37.6400        32
    37.6600        36
    37.6800        24
    37.7000        34
    37.7200        40
    37.7400        30
    37.7600        30
    37.7800        40
    37.8000        40
    37.8200        36
    37.8400        48
    37.8600        38
    37.8800        36
    37.9000        36
    37.9200        28
    37.9400        44
    37.9600        30
    37.9800        32
    38.0000        36
    38.0200        48
    38.0400        40
    38.0600        36
    38.0800        34
    38.1000        50
    38.1200        40
    38.1400        48
    38.1600        40
    38.1800        38
    38.2000        46
    38.2200        40
    38.2400        42
    38.2600        28
    38.2800        34
    38.3000        40
    38.3200        36
    38.3400        40
    38.3600        38
    38.3800        50
    38.4000        46
    38.4200        52
    38.4400        48
    38.4600        62
    38.4800        52
    38.5000        60
    38.5200        56
    38.5400        52
    38.5600        46
    38.5800        52
    38.6000        54
    38.6200        56
    38.6400        52
    38.6600        38
    38.6800        56
    38.7000        58
    38.7200        52
    38.7400        46
    38.7600        60
    38.7800        44
    38.8000        68
    38.8200        56
    38.8400        60
    38.8600        52
    38.8800        54
    38.9000        48
    38.9200        82
    38.9400        62
    38.9600        58
    38.9800        58
    39.0000        52
    39.0200        62
    39.0400        66
    39.0600        70
    39.0800        58
    39.1000        48
    39.1200        50
    39.1400        56
    39.1600        56
    39.1800        76
    39.2000        46
    39.2200        50
    39.2400        54
    39.2600        58
    39.2800        48
    39.3000        68
    39.3200        50
    39.3400        54
    39.3600        48
    39.3800        58
    39.4000        50
    39.4200        58
    39.4400        46
    39.4600        42
    39.4800        48
    39.5000        48
    39.5200        44
    39.5400        44
    39.5600        40
    39.5800        42
    39.6000        44
    39.6200        40
    39.6400        56
    39.6600        42
    39.6800        50
    39.7000        50
    39.7200        46
    39.7400        46
    39.7600        56
    39.7800        52
    39.8000        60
    39.8200        54
    39.8400        60
    39.8600        44
    39.8800        66
    39.9000        60
    39.9200        48
    39.9400        66
    39.9600        64
    39.9800        60
    40.0000        58
    40.0200        66
    40.0400        76
    40.0600        46
    40.0800        48
    40.1000        58
    40.1200        54
    40.1400        46
    40.1600        34
    40.1800        52
    40.2000        58
    40.2200        58
    40.2400        48
    40.2600        54
    40.2800        60
    40.3000        62
    40.3200        58
    40.3400        56
    40.3600        68
    40.3800        74
    40.4000        80
    40.4200        52
    40.4400        50
    40.4600        70
    40.4800        54
    40.5000        52
    40.5200        44
    40.5400        50
    40.5600        56
    40.5800        54
    40.6000        40
    40.6200        38
    40.6400        50
    40.6600        40
    40.6800        52
    40.7000        48
    40.7200        38
    40.7400        48
    40.7600        40
    40.7800        44
    40.8000        38
    40.8200        48
    40.8400        48
    40.8600        42
    40.8800        42
    40.9000        30
    40.9200        34
    40.9400        40
    40.9600        42
    40.9800        38
    41.0000        34
    41.0200        42
    41.0400        52
    41.0600        38
    41.0800        48
    41.1000        46
    41.1200        42
    41.1400        48
    41.1600        44
    41.1800        40
    41.2000        44
    41.2200        46
    41.2400        52
    41.2600        50
    41.2800        48
    41.3000        64
    41.3200        62
    41.3400        56
    41.3600        56
    41.3800        72
    41.4000        52
    41.4200        56
    41.4400        58
    41.4600        62
    41.4800        60
    41.5000        62
    41.5200        62
    41.5400        72
    41.5600        74
    41.5800        70
    41.6000        78
    41.6200        58
    41.6400        80
    41.6600        74
    41.6800        80
    41.7000        56
    41.7200        80
    41.7400        64
    41.7600        80
    41.7800        60
    41.8000        76
    41.8200        60
    41.8400        66
    41.8600        66
    41.8800        66
    41.9000        70
    41.9200        76
    41.9400        58
    41.9600        54
    41.9800        82
    42.0000        76
    42.0200        70
    42.0400        66
    42.0600        68
    42.0800        66
    42.1000        74
    42.1200        52
    42.1400        64
    42.1600        68
    42.1800        84
    42.2000        76
    42.2200        54
    42.2400        66
    42.2600        84
    42.2800        72
    42.3000        86
    42.3200        64
    42.3400        96
    42.3600        90
    42.3800        86
    42.4000        90
    42.4200        90
    42.4400        90
    42.4600        84
    42.4800       100
    42.5000       106
    42.5200        82
    42.5400        88
    42.5600        84
    42.5800        92
    42.6000        90
    42.6200        88
    42.6400       108
    42.6600        90
    42.6800       104
    42.7000       100
    42.7200       120
    42.7400       110
    42.7600       102
    42.7800       126
    42.8000       116
    42.8200       104
    42.8400       102
    42.8600       118
    42.8800        94
    42.9000       114
    42.9200       104
    42.9400       102
    42.9600        86
    42.9800        88
    43.0000        70
    43.0200        66
    43.0400        58
    43.0600        68
    43.0800        62
    43.1000        62
    43.1200        58
    43.1400        62
    43.1600        74
    43.1800        50
    43.2000        46
    43.2200        54
    43.2400        48
    43.2600        56
    43.2800        44
    43.3000        42
    43.3200        44
    43.3400        50
    43.3600        36
    43.3800        36
    43.4000        28
    43.4200        40
    43.4400        44
    43.4600        34
    43.4800        38
    43.5000        40
    43.5200        44
    43.5400        30
    43.5600        42
    43.5800        32
    43.6000        48
    43.6200        36
    43.6400        34
    43.6600        36
    43.6800        30
    43.7000        36
    43.7200        32
    43.7400        28
    43.7600        24
    43.7800        38
    43.8000        30
    43.8200        44
    43.8400        40
    43.8600        28
    43.8800        38
    43.9000        24
    43.9200        42
    43.9400        26
    43.9600        32
    43.9800        28
    44.0000        38
    44.0200        26
    44.0400        38
    44.0600        38
    44.0800        44
    44.1000        36
    44.1200        16
    44.1400        34
    44.1600        30
    44.1800        34
    44.2000        36
    44.2200        22
    44.2400        30
    44.2600        32
    44.2800        32
    44.3000        24
    44.3200        32
    44.3400        30
    44.3600        36
    44.3800        30
    44.4000        28
    44.4200        32
    44.4400        26
    44.4600        24
    44.4800        40
    44.5000        24
    44.5200        24
    44.5400        30
    44.5600        36
    44.5800        24
    44.6000        30
    44.6200        32
    44.6400        40
    44.6600        32
    44.6800        36
    44.7000        30
    44.7200        30
    44.7400        34
    44.7600        30
    44.7800        26
    44.8000        26
    44.8200        30
    44.8400        34
    44.8600        22
    44.8800        38
    44.9000        40
    44.9200        32
    44.9400        42
    44.9600        18
    44.9800        38
    45.0000        38
    45.0200        36
    45.0400        46
    45.0600        40
    45.0800        28
    45.1000        40
    45.1200        30
    45.1400        38
    45.1600        26
    45.1800        36
    45.2000        24
    45.2200        28
    45.2400        26
    45.2600        48
    45.2800        38
    45.3000        38
    45.3200        48
    45.3400        30
    45.3600        34
    45.3800        42
    45.4000        36
    45.4200        38
    45.4400        48
    45.4600        28
    45.4800        28
    45.5000        30
    45.5200        28
    45.5400        46
    45.5600        42
    45.5800        30
    45.6000        36
    45.6200        38
    45.6400        32
    45.6600        36
    45.6800        28
    45.7000        36
    45.7200        26
    45.7400        34
    45.7600        20
    45.7800        26
    45.8000        44
    45.8200        20
    45.8400        40
    45.8600        30
    45.8800        32
    45.9000        26
    45.9200        26
    45.9400        24
    45.9600        32
    45.9800        18
    46.0000        30
    46.0200        22
    46.0400        42
    46.0600        26
    46.0800        40
    46.1000        46
    46.1200        34
    46.1400        26
    46.1600        28
    46.1800        40
    46.2000        38
    46.2200        32
    46.2400        40
    46.2600        48
    46.2800        30
    46.3000        34
    46.3200        36
    46.3400        42
    46.3600        46
    46.3800        34
    46.4000        26
    46.4200        30
    46.4400        32
    46.4600        32
    46.4800        30
    46.5000        24
    46.5200        24
    46.5400        38
    46.5600        38
    46.5800        32
    46.6000        38
    46.6200        28
    46.6400        18
    46.6600        26
    46.6800        30
    46.7000        32
    46.7200        28
    46.7400        26
    46.7600        42
    46.7800        32
    46.8000        38
    46.8200        20
    46.8400        34
    46.8600        28
    46.8800        36
    46.9000        34
    46.9200        28
    46.9400        38
    46.9600        22
    46.9800        16
    47.0000        26
    47.0200        32
    47.0400        30
    47.0600        36
    47.0800        30
    47.1000        30
    47.1200        30
    47.1400        36
    47.1600        30
    47.1800        32
    47.2000        34
    47.2200        20
    47.2400        18
    47.2600        22
    47.2800        44
    47.3000        30
    47.3200        32
    47.3400        28
    47.3600        40
    47.3800        44
    47.4000        32
    47.4200        36
    47.4400        30
    47.4600        40
    47.4800        28
    47.5000        28
    47.5200        30
    47.5400        34
    47.5600        36
    47.5800        42
    47.6000        26
    47.6200        32
    47.6400        38
    47.6600        40
    47.6800        40
    47.7000        20
    47.7200        34
    47.7400        44
    47.7600        40
    47.7800        42
    47.8000        42
    47.8200        30
    47.8400        34
    47.8600        32
    47.8800        44
    47.9000        34
    47.9200        32
    47.9400        32
    47.9600        30
    47.9800        32
    48.0000        38
    48.0200        32
    48.0400        34
    48.0600        34
    48.0800        38
    48.1000        42
    48.1200        24
    48.1400        26
    48.1600        48
    48.1800        22
    48.2000        36
    48.2200        36
    48.2400        34
    48.2600        28
    48.2800        30
    48.3000        34
    48.3200        34
    48.3400        40
    48.3600        26
    48.3800        30
    48.4000        40
    48.4200        32
    48.4400        34
    48.4600        28
    48.4800        22
    48.5000        32
    48.5200        38
    48.5400        32
    48.5600        34
    48.5800        30
    48.6000        26
    48.6200        30
    48.6400        34
    48.6600        42
    48.6800        28
    48.7000        34
    48.7200        36
    48.7400        28
    48.7600        32
    48.7800        32
    48.8000        20
    48.8200        38
    48.8400        20
    48.8600        28
    48.8800        48
    48.9000        34
    48.9200        28
    48.9400        28
    48.9600        34
    48.9800        22
    49.0000        32
    49.0200        34
    49.0400        20
    49.0600        24
    49.0800        32
    49.1000        34
    49.1200        26
    49.1400        44
    49.1600        24
    49.1800        28
    49.2000        30
    49.2200        34
    49.2400        38
    49.2600        32
    49.2800        42
    49.3000        20
    49.3200        30
    49.3400        34
    49.3600        34
    49.3800        32
    49.4000        48
    49.4200        32
    49.4400        34
    49.4600        28
    49.4800        42
    49.5000        22
    49.5200        36
    49.5400        36
    49.5600        34
    49.5800        34
    49.6000        32
    49.6200        30
    49.6400        32
    49.6600        40
    49.6800        36
    49.7000        26
    49.7200        30
    49.7400        32
    49.7600        28
    49.7800        32
    49.8000        36
    49.8200        32
    49.8400        38
    49.8600        34
    49.8800        36
    49.9000        32
    49.9200        22
    49.9400        26
    49.9600        46
    49.9800        28
    50.0000        40
    50.0200        42
    50.0400        38
    50.0600        30
    50.0800        34
    50.1000        32
    50.1200        40
    50.1400        26
    50.1600        44
    50.1800        36
    50.2000        28
    50.2200        40
    50.2400        34
    50.2600        30
    50.2800        48
    50.3000        34
    50.3200        34
    50.3400        56
    50.3600        46
    50.3800        52
    50.4000        48
    50.4200        26
    50.4400        44
    50.4600        48
    50.4800        44
    50.5000        44
    50.5200        44
    50.5400        46
    50.5600        48
    50.5800        52
    50.6000        64
    50.6200        54
    50.6400        66
    50.6600        62
    50.6800        84
    50.7000        82
    50.7200        66
    50.7400        64
    50.7600        70
    50.7800        56
    50.8000        70
    50.8200        58
    50.8400        50
    50.8600        54
    50.8800        66
    50.9000        54
    50.9200        54
    50.9400        58
    50.9600        56
    50.9800        54
    51.0000        54
    51.0200        50
    51.0400        38
    51.0600        38
    51.0800        32
    51.1000        38
    51.1200        42
    51.1400        52
    51.1600        50
    51.1800        54
    51.2000        38
    51.2200        40
    51.2400        44
    51.2600        42
    51.2800        38
    51.3000        36
    51.3200        34
    51.3400        32
    51.3600        44
    51.3800        44
    51.4000        42
    51.4200        50
    51.4400        42
    51.4600        46
    51.4800        54
    51.5000        48
    51.5200        50
    51.5400        42
    51.5600        42
    51.5800        56
    51.6000        52
    51.6200        42
    51.6400        60
    51.6600        60
    51.6800        60
    51.7000        50
    51.7200        62
    51.7400        60
    51.7600        44
    51.7800        48
    51.8000        48
    51.8200        44
    51.8400        42
    51.8600        48
    51.8800        36
    51.9000        46
    51.9200        38
    51.9400        56
    51.9600        50
    51.9800        44
    52.0000        34
    52.0200        52
    52.0400        46
    52.0600        46
    52.0800        38
    52.1000        38
    52.1200        44
    52.1400        34
    52.1600        42
    52.1800        40
    52.2000        46
    52.2200        36
    52.2400        38
    52.2600        36
    52.2800        26
    52.3000        42
    52.3200        36
    52.3400        36
    52.3600        40
    52.3800        32
    52.4000        26
    52.4200        42
    52.4400        38
    52.4600        34
    52.4800        32
    52.5000        40
    52.5200        24
    52.5400        44
    52.5600        36
    52.5800        30
    52.6000        40
    52.6200        32
    52.6400        36
    52.6600        34
    52.6800        38
    52.7000        34
    52.7200        36
    52.7400        42
    52.7600        30
    52.7800        38
    52.8000        38
    52.8200        36
    52.8400        40
    52.8600        56
    52.8800        44
    52.9000        40
    52.9200        38
    52.9400        48
    52.9600        48
    52.9800        36
    53.0000        30
    53.0200        30
    53.0400        40
    53.0600        34
    53.0800        46
    53.1000        32
    53.1200        40
    53.1400        40
    53.1600        36
    53.1800        34
    53.2000        28
    53.2200        42
    53.2400        48
    53.2600        56
    53.2800        34
    53.3000        40
    53.3200        36
    53.3400        54
    53.3600        46
    53.3800        50
    53.4000        36
    53.4200        42
    53.4400        38
    53.4600        42
    53.4800        40
    53.5000        46
    53.5200        40
    53.5400        38
    53.5600        38
    53.5800        40
    53.6000        36
    53.6200        36
    53.6400        40
    53.6600        40
    53.6800        22
    53.7000        30
    53.7200        40
    53.7400        34
    53.7600        28
    53.7800        26
    53.8000        30
    53.8200        18
    53.8400        38
    53.8600        36
    53.8800        40
    53.9000        32
    53.9200        44
    53.9400        32
    53.9600        42
    53.9800        34
    54.0000        34
    54.0200        38
    54.0400        44
    54.0600        32
    54.0800        36
    54.1000        40
    54.1200        34
    54.1400        30
    54.1600        38
    54.1800        40
    54.2000        38
    54.2200        42
    54.2400        58
    54.2600        34
    54.2800        40
    54.3000        40
    54.3200        32
    54.3400        44
    54.3600        36
    54.3800        40
    54.4000        44
    54.4200        30
    54.4400        42
    54.4600        56
    54.4800        48
    54.5000        48
    54.5200        36
    54.5400        34
    54.5600        48
    54.5800        52
    54.6000        58
    54.6200        48
    54.6400        54
    54.6600        48
    54.6800        40
    54.7000        54
    54.7200        42
    54.7400        50
    54.7600        62
    54.7800        52
    54.8000        56
    54.8200        52
    54.8400        48
    54.8600        66
    54.8800        60
    54.9000        52
    54.9200        80
    54.9400        60
    54.9600        80
    54.9800        72
    55.0000        62
    55.0200        76
    55.0400        64
    55.0600        78
    55.0800        66
    55.1000        56
    55.1200        50
    55.1400        56
    55.1600        40
    55.1800        64
    55.2000        58
    55.2200        46
    55.2400        58
    55.2600        46
    55.2800        40
    55.3000        42
    55.3200        52
    55.3400        30
    55.3600        38
    55.3800        42
    55.4000        40
    55.4200        48
    55.4400        38
    55.4600        28
    55.4800        40
    55.5000        48
    55.5200        26
    55.5400        36
    55.5600        42
    55.5800        32
    55.6000        26
    55.6200        34
    55.6400        36
    55.6600        26
    55.6800        38
    55.7000        34
    55.7200        28
    55.7400        36
    55.7600        28
    55.7800        32
    55.8000        24
    55.8200        24
    55.8400        26
    55.8600        26
    55.8800        24
    55.9000        28
    55.9200        30
    55.9400        34
    55.9600        32
    55.9800        24
    56.0000        40
    56.0200        22
    56.0400        20
    56.0600        26
    56.0800        32
    56.1000        30
    56.1200        32
    56.1400        44
    56.1600        36
    56.1800        46
    56.2000        40
    56.2200        28
    56.2400        34
    56.2600        30
    56.2800        30
    56.3000        40
    56.3200        28
    56.3400        36
    56.3600        38
    56.3800        38
    56.4000        34
    56.4200        22
    56.4400        32
    56.4600        36
    56.4800        30
    56.5000        28
    56.5200        32
    56.5400        26
    56.5600        26
    56.5800        32
    56.6000        40
    56.6200        28
    56.6400        32
    56.6600        26
    56.6800        34
    56.7000        36
    56.7200        34
    56.7400        38
    56.7600        46
    56.7800        40
    56.8000        32
    56.8200        40
    56.8400        36
    56.8600        54
    56.8800        40
    56.9000        38
    56.9200        34
    56.9400        30
    56.9600        48
    56.9800        46
    57.0000        38
    57.0200        52
    57.0400        46
    57.0600        34
    57.0800        52
    57.1000        48
    57.1200        50
    57.1400        52
    57.1600        54
    57.1800        52
    57.2000        46
    57.2200        48
    57.2400        32
    57.2600        40
    57.2800        44
    57.3000        52
    57.3200        44
    57.3400        36
    57.3600        32
    57.3800        58
    57.4000        44
    57.4200        44
    57.4400        38
    57.4600        34
    57.4800        24
    57.5000        24
    57.5200        24
    57.5400        48
    57.5600        48
    57.5800        36
    57.6000        34
    57.6200        38
    57.6400        42
    57.6600        28
    57.6800        26
    57.7000        38
    57.7200        32
    57.7400        38
    57.7600        22
    57.7800        36
    57.8000        36
    57.8200        30
    57.8400        28
    57.8600        30
    57.8800        32
    57.9000        34
    57.9200        40
    57.9400        40
    57.9600        34
    57.9800        34
    58.0000        40
    58.0200        44
    58.0400        32
    58.0600        42
    58.0800        36
    58.1000        26
    58.1200        36
    58.1400        30
    58.1600        34
    58.1800        46
    58.2000        40
    58.2200        34
    58.2400        36
    58.2600        36
    58.2800        26
    58.3000        22
    58.3200        38
    58.3400        36
    58.3600        40
    58.3800        42
    58.4000        38
    58.4200        40
    58.4400        32
    58.4600        32
    58.4800        42
    58.5000        36
    58.5200        28
    58.5400        30
    58.5600        38
    58.5800        30
    58.6000        44
    58.6200        26
    58.6400        42
    58.6600        38
    58.6800        30
    58.7000        38
    58.7200        38
    58.7400        42
    58.7600        32
    58.7800        34
    58.8000        38
    58.8200        38
    58.8400        36
    58.8600        24
    58.8800        38
    58.9000        56
    58.9200        38
    58.9400        36
    58.9600        40
    58.9800        40
    59.0000        54
    59.0200        46
    59.0400        62
    59.0600        54
    59.0800        72
    59.1000        50
    59.1200        44
    59.1400        52
    59.1600        42
    59.1800        50
    59.2000        52
    59.2200        32
    59.2400        36
    59.2600        54
    59.2800        48
    59.3000        46
    59.3200        54
    59.3400        42
    59.3600        50
    59.3800        46
    59.4000        48
    59.4200        46
    59.4400        36
    59.4600        44
    59.4800        44
    59.5000        36
    59.5200        58
    59.5400        48
    59.5600        52
    59.5800        40
    59.6000        52
    59.6200        60
    59.6400        60
    59.6600        40
    59.6800        44
    59.7000        42
    59.7200        44
    59.7400        40
    59.7600        30
    59.7800        40
    59.8000        42
    59.8200        42
    59.8400        44
    59.8600        36
    59.8800        48
    59.9000        34
    59.9200        44
    59.9400        44
    59.9600        40
    59.9800        52
    60.0000        52
    60.0200        32
    60.0400        38
    60.0600        44
    60.0800        46
    60.1000        32
    60.1200        52
    60.1400        48
    60.1600        54
    60.1800        44
    60.2000        52
    60.2200        54
    60.2400        54
    60.2600        54
    60.2800        52
    60.3000        44
    60.3200        54
    60.3400        50
    60.3600        48
    60.3800        36
    60.4000        46
    60.4200        66
    60.4400        52
    60.4600        60
    60.4800        52
    60.5000        58
    60.5200        56
    60.5400        62
    60.5600        44
    60.5800        36
    60.6000        46
    60.6200        36
    60.6400        38
    60.6600        42
    60.6800        52
    60.7000        44
    60.7200        46
    60.7400        48
    60.7600        54
    60.7800        54
    60.8000        56
    60.8200        36
    60.8400        38
    60.8600        46
    60.8800        34
    60.9000        50
    60.9200        38
    60.9400        48
    60.9600        48
    60.9800        48
    61.0000        46
    61.0200        42
    61.0400        46
    61.0600        46
    61.0800        64
    61.1000        62
    61.1200        32
    61.1400        50
    61.1600        42
    61.1800        46
    61.2000        34
    61.2200        54
    61.2400        44
    61.2600        56
    61.2800        42
    61.3000        38
    61.3200        74
    61.3400        54
    61.3600        60
    61.3800        46
    61.4000        56
    61.4200        58
    61.4400        72
    61.4600        84
    61.4800        64
    61.5000        60
    61.5200        80
    61.5400        50
    61.5600        68
    61.5800        50
    61.6000        72
    61.6200        62
    61.6400        58
    61.6600        54
    61.6800        68
    61.7000        58
    61.7200        56
    61.7400        58
    61.7600        48
    61.7800        54
    61.8000        46
    61.8200        46
    61.8400        42
    61.8600        44
    61.8800        32
    61.9000        46
    61.9200        44
    61.9400        50
    61.9600        24
    61.9800        40
    62.0000        30
    62.0200        34
    62.0400        48
    62.0600        50
    62.0800        40
    62.1000        32
    62.1200        50
    62.1400        46
    62.1600        44
    62.1800        50
    62.2000        56
    62.2200        54
    62.2400        42
    62.2600        46
    62.2800        42
    62.3000        58
    62.3200        62
    62.3400        62
    62.3600        52
    62.3800        68
    62.4000        54
    62.4200        64
    62.4400        58
    62.4600        48
    62.4800        66
    62.5000        48
    62.5200        56
    62.5400        38
    62.5600        44
    62.5800        32
    62.6000        40
    62.6200        42
    62.6400        34
    62.6600        52
    62.6800        40
    62.7000        42
    62.7200        28
    62.7400        40
    62.7600        38
    62.7800        26
    62.8000        30
    62.8200        22
    62.8400        32
    62.8600        24
    62.8800        40
    62.9000        44
    62.9200        28
    62.9400        34
    62.9600        32
    62.9800        32
    63.0000        28
    63.0200        24
    63.0400        32
    63.0600        32
    63.0800        32
    63.1000        30
    63.1200        26
    63.1400        28
    63.1600        28
    63.1800        26
    63.2000        30
    63.2200        30
    63.2400        26
    63.2600        28
    63.2800        28
    63.3000        36
    63.3200        30
    63.3400        24
    63.3600        34
    63.3800        26
    63.4000        32
    63.4200        32
    63.4400        34
    63.4600        26
    63.4800        36
    63.5000        30
    63.5200        44
    63.5400        38
    63.5600        34
    63.5800        36
    63.6000        24
    63.6200        26
    63.6400        30
    63.6600        24
    63.6800        28
    63.7000        26
    63.7200        28
    63.7400        30
    63.7600        38
    63.7800        30
    63.8000        28
    63.8200        28
    63.8400        34
    63.8600        36
    63.8800        34
    63.9000        46
    63.9200        26
    63.9400        28
    63.9600        34
    63.9800        26
    64.0000        28
    64.0200        24
    64.0400        38
    64.0600        36
    64.0800        28
    64.1000        32
    64.1200        34
    64.1400        26
    64.1600        30
    64.1800        20
    64.2000        36
    64.2200        26
    64.2400        36
    64.2600        28
    64.2800        26
    64.3000        34
    64.3200        36
    64.3400        28
    64.3600        42
    64.3800        44
    64.4000        32
    64.4200        22
    64.4400        32
    64.4600        24
    64.4800        30
    64.5000        24
    64.5200        30
    64.5400        34
    64.5600        30
    64.5800        28
    64.6000        34
    64.6200        44
    64.6400        34
    64.6600        20
    64.6800        48
    64.7000        40
    64.7200        32
    64.7400        36
    64.7600        38
    64.7800        26
    64.8000        34
    64.8200        28
    64.8400        38
    64.8600        48
    64.8800        30
    64.9000        40
    64.9200        44
    64.9400        36
    64.9600        58
    64.9800        42
    65.0000        38
