/////////////////////////////////////////////////////////////////////////////////
/// Profile Data Ascii Dump (XRD)                                             ///
/////////////////////////////////////////////////////////////////////////////////

  Group     : Swayze
  Data      : GDS80
  File Name : GDS80.RAW

# Profile Datafile
          comment             = Syn Lepidocrosite 
          date & time         = 08-04-14 08:55:48 

# Measurement Condition
    X-ray tube
          target              = Cu 
          voltage             = 40.0 (kV)
          current             = 30.0 (mA)
    Slits
          divergence slit     = 2.00000 (deg) 
          scatter slit        = 2.00000 (deg) 
          receiving slit      = 0.15000 (mm)  
    Scanning
          drive axis          = Theta-2Theta 
          scan range          =    4.000 -   65.000 
          scan mode           = Continuous Scan 
          scan speed          =   2.0000 (deg/min) 
          sampling pitch      =   0.0200 (deg) 
          preset time         =   0.60 (sec) 

# Data      [ Total No. = 3051 ]
  <2Theta>   <   I   >
     4.0000       180
     4.0200       220
     4.0400       188
     4.0600       200
     4.0800       172
     4.1000       238
     4.1200       176
     4.1400       206
     4.1600       194
     4.1800       178
     4.2000       180
     4.2200       190
     4.2400       206
     4.2600       194
     4.2800       202
     4.3000       186
     4.3200       180
     4.3400       182
     4.3600       184
     4.3800       170
     4.4000       194
     4.4200       158
     4.4400       220
     4.4600       174
     4.4800       178
     4.5000       176
     4.5200       174
     4.5400       206
     4.5600       190
     4.5800       180
     4.6000       196
     4.6200       148
     4.6400       174
     4.6600       176
     4.6800       176
     4.7000       154
     4.7200       178
     4.7400       164
     4.7600       178
     4.7800       168
     4.8000       176
     4.8200       172
     4.8400       156
     4.8600       188
     4.8800       160
     4.9000       170
     4.9200       180
     4.9400       190
     4.9600       162
     4.9800       146
     5.0000       186
     5.0200       140
     5.0400       144
     5.0600       136
     5.0800       158
     5.1000       148
     5.1200       168
     5.1400       144
     5.1600       182
     5.1800       160
     5.2000       160
     5.2200       186
     5.2400       164
     5.2600       164
     5.2800       168
     5.3000       162
     5.3200       152
     5.3400       168
     5.3600       182
     5.3800       170
     5.4000       156
     5.4200       188
     5.4400       164
     5.4600       138
     5.4800       172
     5.5000       174
     5.5200       166
     5.5400       142
     5.5600       168
     5.5800       148
     5.6000       124
     5.6200       150
     5.6400       166
     5.6600       158
     5.6800       184
     5.7000       164
     5.7200       152
     5.7400       164
     5.7600       146
     5.7800       156
     5.8000       148
     5.8200       180
     5.8400       130
     5.8600       138
     5.8800       150
     5.9000       166
     5.9200       130
     5.9400       184
     5.9600       164
     5.9800       168
     6.0000       172
     6.0200       148
     6.0400       162
     6.0600       180
     6.0800       144
     6.1000       138
     6.1200       158
     6.1400       174
     6.1600       150
     6.1800       136
     6.2000       150
     6.2200       152
     6.2400       162
     6.2600       146
     6.2800       164
     6.3000       146
     6.3200       168
     6.3400       140
     6.3600       136
     6.3800       148
     6.4000       126
     6.4200       132
     6.4400       158
     6.4600       148
     6.4800       130
     6.5000       154
     6.5200       112
     6.5400       148
     6.5600       146
     6.5800       162
     6.6000       142
     6.6200       154
     6.6400       128
     6.6600       158
     6.6800       156
     6.7000       132
     6.7200       136
     6.7400       122
     6.7600       130
     6.7800       138
     6.8000       122
     6.8200       112
     6.8400       128
     6.8600       138
     6.8800       114
     6.9000       138
     6.9200       126
     6.9400       136
     6.9600       138
     6.9800       134
     7.0000       130
     7.0200       142
     7.0400       118
     7.0600        88
     7.0800       130
     7.1000       116
     7.1200       128
     7.1400       120
     7.1600       114
     7.1800       130
     7.2000       130
     7.2200       122
     7.2400       108
     7.2600       134
     7.2800       118
     7.3000       116
     7.3200        94
     7.3400       132
     7.3600       130
     7.3800       118
     7.4000        98
     7.4200       124
     7.4400        98
     7.4600       116
     7.4800       124
     7.5000       100
     7.5200       116
     7.5400       126
     7.5600       136
     7.5800        92
     7.6000       110
     7.6200       122
     7.6400       114
     7.6600       102
     7.6800       130
     7.7000       112
     7.7200       104
     7.7400       108
     7.7600       116
     7.7800       120
     7.8000       108
     7.8200       118
     7.8400       116
     7.8600       118
     7.8800       110
     7.9000       106
     7.9200        92
     7.9400       132
     7.9600       110
     7.9800       118
     8.0000       112
     8.0200       114
     8.0400       128
     8.0600       124
     8.0800       100
     8.1000       106
     8.1200       116
     8.1400       118
     8.1600       112
     8.1800       116
     8.2000       104
     8.2200       114
     8.2400        96
     8.2600       112
     8.2800       108
     8.3000       108
     8.3200       120
     8.3400       108
     8.3600       100
     8.3800       132
     8.4000       118
     8.4200       110
     8.4400       114
     8.4600        84
     8.4800       112
     8.5000       112
     8.5200       118
     8.5400       128
     8.5600       106
     8.5800       102
     8.6000       118
     8.6200       116
     8.6400       102
     8.6600       118
     8.6800       108
     8.7000       124
     8.7200       110
     8.7400       106
     8.7600       130
     8.7800       126
     8.8000        98
     8.8200       128
     8.8400       116
     8.8600       100
     8.8800       110
     8.9000       120
     8.9200       124
     8.9400       114
     8.9600       102
     8.9800        98
     9.0000       124
     9.0200       114
     9.0400        96
     9.0600       110
     9.0800        90
     9.1000       118
     9.1200       136
     9.1400       120
     9.1600       126
     9.1800       106
     9.2000       126
     9.2200       112
     9.2400       118
     9.2600       116
     9.2800       114
     9.3000       104
     9.3200       118
     9.3400       116
     9.3600       108
     9.3800       110
     9.4000       114
     9.4200       122
     9.4400       116
     9.4600       106
     9.4800       102
     9.5000       116
     9.5200        92
     9.5400       118
     9.5600       104
     9.5800       104
     9.6000        96
     9.6200       130
     9.6400       122
     9.6600       114
     9.6800       112
     9.7000       102
     9.7200       108
     9.7400       108
     9.7600       110
     9.7800       122
     9.8000        96
     9.8200       112
     9.8400       108
     9.8600       112
     9.8800       104
     9.9000       122
     9.9200       124
     9.9400       130
     9.9600       102
     9.9800       120
    10.0000       106
    10.0200       118
    10.0400        90
    10.0600       108
    10.0800        90
    10.1000       120
    10.1200       112
    10.1400       114
    10.1600       106
    10.1800        94
    10.2000        96
    10.2200       108
    10.2400       104
    10.2600        94
    10.2800       106
    10.3000       116
    10.3200       110
    10.3400       100
    10.3600        86
    10.3800       108
    10.4000       116
    10.4200        92
    10.4400       118
    10.4600        92
    10.4800        82
    10.5000        90
    10.5200        90
    10.5400       108
    10.5600       112
    10.5800        78
    10.6000       108
    10.6200        90
    10.6400        82
    10.6600        98
    10.6800        94
    10.7000       112
    10.7200        98
    10.7400       104
    10.7600       100
    10.7800        92
    10.8000        86
    10.8200       108
    10.8400        94
    10.8600        86
    10.8800        94
    10.9000        94
    10.9200        86
    10.9400        94
    10.9600        96
    10.9800        76
    11.0000        88
    11.0200        96
    11.0400        84
    11.0600       116
    11.0800       114
    11.1000        88
    11.1200       102
    11.1400        84
    11.1600        80
    11.1800        84
    11.2000        92
    11.2200       102
    11.2400        92
    11.2600        84
    11.2800       100
    11.3000        92
    11.3200        88
    11.3400        88
    11.3600        90
    11.3800       104
    11.4000        92
    11.4200        92
    11.4400        78
    11.4600        86
    11.4800        88
    11.5000        80
    11.5200        86
    11.5400        92
    11.5600       102
    11.5800        84
    11.6000        92
    11.6200        90
    11.6400        84
    11.6600        74
    11.6800        88
    11.7000        86
    11.7200        84
    11.7400        80
    11.7600        90
    11.7800        82
    11.8000        66
    11.8200        92
    11.8400        76
    11.8600       104
    11.8800        92
    11.9000        96
    11.9200        68
    11.9400        84
    11.9600        64
    11.9800        68
    12.0000        78
    12.0200        96
    12.0400        74
    12.0600        88
    12.0800        82
    12.1000        92
    12.1200        70
    12.1400        70
    12.1600        86
    12.1800        78
    12.2000        74
    12.2200        68
    12.2400        90
    12.2600       102
    12.2800        78
    12.3000        74
    12.3200        76
    12.3400        74
    12.3600        86
    12.3800        78
    12.4000        80
    12.4200        82
    12.4400        76
    12.4600        84
    12.4800        74
    12.5000        84
    12.5200        86
    12.5400        74
    12.5600        84
    12.5800        80
    12.6000        70
    12.6200        80
    12.6400        72
    12.6600        94
    12.6800        84
    12.7000        76
    12.7200        92
    12.7400        58
    12.7600        76
    12.7800        78
    12.8000        72
    12.8200        64
    12.8400        80
    12.8600        68
    12.8800        70
    12.9000        70
    12.9200        88
    12.9400        88
    12.9600        86
    12.9800        68
    13.0000        72
    13.0200        76
    13.0400        78
    13.0600        68
    13.0800        82
    13.1000        92
    13.1200        72
    13.1400        64
    13.1600        82
    13.1800        70
    13.2000        80
    13.2200        82
    13.2400        78
    13.2600        72
    13.2800        76
    13.3000        82
    13.3200        84
    13.3400        80
    13.3600        76
    13.3800       102
    13.4000        92
    13.4200        86
    13.4400        78
    13.4600        98
    13.4800        88
    13.5000        72
    13.5200        80
    13.5400        68
    13.5600        98
    13.5800        94
    13.6000        70
    13.6200       100
    13.6400        80
    13.6600        90
    13.6800        90
    13.7000       102
    13.7200       120
    13.7400        74
    13.7600        96
    13.7800       106
    13.8000       104
    13.8200        86
    13.8400       110
    13.8600       122
    13.8800       118
    13.9000       114
    13.9200        94
    13.9400       122
    13.9600       142
    13.9800       138
    14.0000       122
    14.0200       136
    14.0400       130
    14.0600       116
    14.0800       146
    14.1000       120
    14.1200       108
    14.1400       114
    14.1600       106
    14.1800        92
    14.2000        80
    14.2200       114
    14.2400       102
    14.2600       106
    14.2800       110
    14.3000        98
    14.3200        72
    14.3400        78
    14.3600        90
    14.3800        84
    14.4000        68
    14.4200        76
    14.4400        86
    14.4600        74
    14.4800        78
    14.5000        78
    14.5200        68
    14.5400        64
    14.5600        68
    14.5800        64
    14.6000        90
    14.6200        94
    14.6400        68
    14.6600        56
    14.6800        80
    14.7000        70
    14.7200        80
    14.7400        76
    14.7600        58
    14.7800        80
    14.8000        94
    14.8200        72
    14.8400        64
    14.8600        76
    14.8800        62
    14.9000        70
    14.9200        78
    14.9400        68
    14.9600        66
    14.9800        66
    15.0000        76
    15.0200        66
    15.0400        70
    15.0600        68
    15.0800        66
    15.1000        80
    15.1200        74
    15.1400        76
    15.1600        68
    15.1800        62
    15.2000        66
    15.2200        64
    15.2400        54
    15.2600        62
    15.2800        56
    15.3000        70
    15.3200        60
    15.3400        80
    15.3600        72
    15.3800        68
    15.4000        72
    15.4200        50
    15.4400        70
    15.4600        86
    15.4800        62
    15.5000        60
    15.5200        56
    15.5400        64
    15.5600        72
    15.5800        60
    15.6000        52
    15.6200        66
    15.6400        80
    15.6600        54
    15.6800        52
    15.7000        60
    15.7200        50
    15.7400        64
    15.7600        62
    15.7800        62
    15.8000        62
    15.8200        70
    15.8400        74
    15.8600        62
    15.8800        56
    15.9000        50
    15.9200        46
    15.9400        56
    15.9600        62
    15.9800        62
    16.0000        62
    16.0200        62
    16.0400        48
    16.0600        62
    16.0800        54
    16.1000        68
    16.1200        68
    16.1400        66
    16.1600        64
    16.1800        70
    16.2000        64
    16.2200        50
    16.2400        64
    16.2600        54
    16.2800        62
    16.3000        50
    16.3200        46
    16.3400        50
    16.3600        72
    16.3800        68
    16.4000        54
    16.4200        64
    16.4400        60
    16.4600        54
    16.4800        70
    16.5000        68
    16.5200        58
    16.5400        62
    16.5600        56
    16.5800        52
    16.6000        70
    16.6200        66
    16.6400        48
    16.6600        58
    16.6800        54
    16.7000        42
    16.7200        52
    16.7400        52
    16.7600        62
    16.7800        70
    16.8000        52
    16.8200        64
    16.8400        74
    16.8600        60
    16.8800        62
    16.9000        62
    16.9200        66
    16.9400        72
    16.9600        62
    16.9800        62
    17.0000        60
    17.0200        60
    17.0400        62
    17.0600        58
    17.0800        56
    17.1000        62
    17.1200        64
    17.1400        56
    17.1600        80
    17.1800        54
    17.2000        52
    17.2200        40
    17.2400        52
    17.2600        70
    17.2800        60
    17.3000        56
    17.3200        74
    17.3400        48
    17.3600        76
    17.3800        64
    17.4000        70
    17.4200        72
    17.4400        66
    17.4600        52
    17.4800        72
    17.5000        68
    17.5200        68
    17.5400        60
    17.5600        62
    17.5800        78
    17.6000        80
    17.6200        74
    17.6400        80
    17.6600        62
    17.6800        84
    17.7000        78
    17.7200        80
    17.7400        72
    17.7600        66
    17.7800        62
    17.8000        90
    17.8200        68
    17.8400        76
    17.8600        70
    17.8800        76
    17.9000        66
    17.9200        64
    17.9400        58
    17.9600        58
    17.9800        80
    18.0000        54
    18.0200        70
    18.0400        62
    18.0600        72
    18.0800        54
    18.1000        62
    18.1200        62
    18.1400        66
    18.1600        60
    18.1800        54
    18.2000        74
    18.2200        62
    18.2400        60
    18.2600        42
    18.2800        66
    18.3000        54
    18.3200        54
    18.3400        70
    18.3600        78
    18.3800        74
    18.4000        48
    18.4200        50
    18.4400        48
    18.4600        52
    18.4800        48
    18.5000        46
    18.5200        52
    18.5400        66
    18.5600        56
    18.5800        70
    18.6000        52
    18.6200        60
    18.6400        58
    18.6600        56
    18.6800        66
    18.7000        60
    18.7200        58
    18.7400        60
    18.7600        60
    18.7800        54
    18.8000        68
    18.8200        54
    18.8400        50
    18.8600        60
    18.8800        68
    18.9000        54
    18.9200        56
    18.9400        72
    18.9600        50
    18.9800        70
    19.0000        52
    19.0200        62
    19.0400        58
    19.0600        48
    19.0800        72
    19.1000        48
    19.1200        58
    19.1400        56
    19.1600        62
    19.1800        64
    19.2000        70
    19.2200        42
    19.2400        68
    19.2600        64
    19.2800        50
    19.3000        52
    19.3200        62
    19.3400        54
    19.3600        66
    19.3800        56
    19.4000        52
    19.4200        58
    19.4400        60
    19.4600        62
    19.4800        56
    19.5000        48
    19.5200        72
    19.5400        60
    19.5600        64
    19.5800        48
    19.6000        58
    19.6200        52
    19.6400        74
    19.6600        58
    19.6800        58
    19.7000        64
    19.7200        56
    19.7400        60
    19.7600        60
    19.7800        50
    19.8000        70
    19.8200        60
    19.8400        50
    19.8600        68
    19.8800        62
    19.9000        72
    19.9200        52
    19.9400        78
    19.9600        52
    19.9800        50
    20.0000        54
    20.0200        62
    20.0400        74
    20.0600        50
    20.0800        58
    20.1000        68
    20.1200        58
    20.1400        70
    20.1600        66
    20.1800        60
    20.2000        56
    20.2200        58
    20.2400        78
    20.2600        74
    20.2800        72
    20.3000        84
    20.3200        78
    20.3400        74
    20.3600        76
    20.3800        68
    20.4000        78
    20.4200        80
    20.4400        94
    20.4600        76
    20.4800        68
    20.5000        92
    20.5200        96
    20.5400        80
    20.5600       104
    20.5800       112
    20.6000        92
    20.6200        98
    20.6400       102
    20.6600       118
    20.6800       120
    20.7000       124
    20.7200       126
    20.7400       126
    20.7600       120
    20.7800       114
    20.8000       142
    20.8200       132
    20.8400       138
    20.8600       148
    20.8800       138
    20.9000       150
    20.9200       142
    20.9400       176
    20.9600       146
    20.9800       132
    21.0000       162
    21.0200       174
    21.0400       158
    21.0600       162
    21.0800       152
    21.1000       144
    21.1200       152
    21.1400       156
    21.1600       140
    21.1800       180
    21.2000       134
    21.2200       120
    21.2400       128
    21.2600       140
    21.2800       148
    21.3000       112
    21.3200       118
    21.3400       106
    21.3600       108
    21.3800       130
    21.4000       138
    21.4200       102
    21.4400        82
    21.4600       104
    21.4800        98
    21.5000        76
    21.5200        90
    21.5400        80
    21.5600        92
    21.5800        56
    21.6000        90
    21.6200        70
    21.6400        72
    21.6600        92
    21.6800        66
    21.7000        82
    21.7200        72
    21.7400        78
    21.7600        56
    21.7800        74
    21.8000        74
    21.8200        76
    21.8400        64
    21.8600        54
    21.8800        68
    21.9000        72
    21.9200        52
    21.9400        66
    21.9600        70
    21.9800        54
    22.0000        50
    22.0200        56
    22.0400        58
    22.0600        60
    22.0800        64
    22.1000        56
    22.1200        60
    22.1400        56
    22.1600        60
    22.1800        54
    22.2000        34
    22.2200        70
    22.2400        50
    22.2600        48
    22.2800        58
    22.3000        52
    22.3200        54
    22.3400        62
    22.3600        46
    22.3800        56
    22.4000        50
    22.4200        44
    22.4400        42
    22.4600        50
    22.4800        52
    22.5000        60
    22.5200        56
    22.5400        50
    22.5600        46
    22.5800        58
    22.6000        58
    22.6200        66
    22.6400        56
    22.6600        36
    22.6800        48
    22.7000        46
    22.7200        38
    22.7400        56
    22.7600        46
    22.7800        50
    22.8000        54
    22.8200        48
    22.8400        52
    22.8600        54
    22.8800        54
    22.9000        54
    22.9200        34
    22.9400        50
    22.9600        66
    22.9800        52
    23.0000        44
    23.0200        38
    23.0400        52
    23.0600        40
    23.0800        62
    23.1000        50
    23.1200        56
    23.1400        54
    23.1600        50
    23.1800        50
    23.2000        48
    23.2200        62
    23.2400        46
    23.2600        44
    23.2800        54
    23.3000        56
    23.3200        54
    23.3400        54
    23.3600        42
    23.3800        50
    23.4000        44
    23.4200        50
    23.4400        42
    23.4600        38
    23.4800        52
    23.5000        44
    23.5200        60
    23.5400        40
    23.5600        54
    23.5800        56
    23.6000        50
    23.6200        48
    23.6400        44
    23.6600        36
    23.6800        54
    23.7000        50
    23.7200        42
    23.7400        48
    23.7600        36
    23.7800        52
    23.8000        54
    23.8200        40
    23.8400        54
    23.8600        46
    23.8800        46
    23.9000        40
    23.9200        54
    23.9400        50
    23.9600        44
    23.9800        48
    24.0000        50
    24.0200        42
    24.0400        52
    24.0600        40
    24.0800        48
    24.1000        46
    24.1200        48
    24.1400        42
    24.1600        46
    24.1800        48
    24.2000        40
    24.2200        48
    24.2400        62
    24.2600        40
    24.2800        50
    24.3000        40
    24.3200        36
    24.3400        50
    24.3600        42
    24.3800        38
    24.4000        52
    24.4200        38
    24.4400        40
    24.4600        46
    24.4800        46
    24.5000        56
    24.5200        46
    24.5400        56
    24.5600        42
    24.5800        48
    24.6000        52
    24.6200        62
    24.6400        48
    24.6600        40
    24.6800        40
    24.7000        46
    24.7200        50
    24.7400        44
    24.7600        54
    24.7800        34
    24.8000        44
    24.8200        50
    24.8400        44
    24.8600        38
    24.8800        46
    24.9000        38
    24.9200        44
    24.9400        46
    24.9600        44
    24.9800        44
    25.0000        42
    25.0200        46
    25.0400        30
    25.0600        52
    25.0800        40
    25.1000        50
    25.1200        44
    25.1400        54
    25.1600        46
    25.1800        52
    25.2000        50
    25.2200        40
    25.2400        50
    25.2600        54
    25.2800        38
    25.3000        52
    25.3200        46
    25.3400        42
    25.3600        36
    25.3800        38
    25.4000        44
    25.4200        42
    25.4400        48
    25.4600        38
    25.4800        40
    25.5000        52
    25.5200        48
    25.5400        54
    25.5600        46
    25.5800        54
    25.6000        60
    25.6200        46
    25.6400        54
    25.6600        46
    25.6800        46
    25.7000        56
    25.7200        48
    25.7400        40
    25.7600        62
    25.7800        52
    25.8000        66
    25.8200        66
    25.8400        40
    25.8600        60
    25.8800        52
    25.9000        64
    25.9200        54
    25.9400        58
    25.9600        60
    25.9800        70
    26.0000        70
    26.0200        62
    26.0400        44
    26.0600        62
    26.0800        64
    26.1000        56
    26.1200        60
    26.1400        76
    26.1600        62
    26.1800        56
    26.2000        58
    26.2200        70
    26.2400        70
    26.2600        54
    26.2800        60
    26.3000        78
    26.3200        74
    26.3400        68
    26.3600        62
    26.3800        68
    26.4000        60
    26.4200        86
    26.4400        56
    26.4600        64
    26.4800        82
    26.5000        64
    26.5200        90
    26.5400        86
    26.5600        72
    26.5800        70
    26.6000        72
    26.6200        88
    26.6400        70
    26.6600        64
    26.6800        92
    26.7000        82
    26.7200        84
    26.7400       114
    26.7600        78
    26.7800        86
    26.8000       110
    26.8200        92
    26.8400        98
    26.8600        90
    26.8800        92
    26.9000       100
    26.9200       124
    26.9400       104
    26.9600        98
    26.9800       104
    27.0000       110
    27.0200       100
    27.0400       102
    27.0600        92
    27.0800        88
    27.1000        86
    27.1200        88
    27.1400        80
    27.1600        94
    27.1800        74
    27.2000        72
    27.2200        76
    27.2400        66
    27.2600        66
    27.2800        64
    27.3000        72
    27.3200        72
    27.3400        70
    27.3600        68
    27.3800        50
    27.4000        66
    27.4200        50
    27.4400        50
    27.4600        44
    27.4800        62
    27.5000        52
    27.5200        56
    27.5400        40
    27.5600        44
    27.5800        30
    27.6000        36
    27.6200        52
    27.6400        48
    27.6600        44
    27.6800        50
    27.7000        46
    27.7200        66
    27.7400        50
    27.7600        40
    27.7800        50
    27.8000        54
    27.8200        38
    27.8400        52
    27.8600        44
    27.8800        60
    27.9000        40
    27.9200        48
    27.9400        44
    27.9600        50
    27.9800        46
    28.0000        54
    28.0200        40
    28.0400        48
    28.0600        56
    28.0800        48
    28.1000        48
    28.1200        30
    28.1400        62
    28.1600        50
    28.1800        36
    28.2000        52
    28.2200        50
    28.2400        34
    28.2600        56
    28.2800        42
    28.3000        40
    28.3200        42
    28.3400        44
    28.3600        48
    28.3800        40
    28.4000        46
    28.4200        52
    28.4400        60
    28.4600        38
    28.4800        32
    28.5000        42
    28.5200        46
    28.5400        54
    28.5600        36
    28.5800        42
    28.6000        32
    28.6200        42
    28.6400        28
    28.6600        40
    28.6800        38
    28.7000        44
    28.7200        32
    28.7400        40
    28.7600        44
    28.7800        32
    28.8000        42
    28.8200        50
    28.8400        52
    28.8600        44
    28.8800        38
    28.9000        42
    28.9200        46
    28.9400        42
    28.9600        28
    28.9800        46
    29.0000        24
    29.0200        42
    29.0400        50
    29.0600        48
    29.0800        36
    29.1000        42
    29.1200        44
    29.1400        34
    29.1600        38
    29.1800        32
    29.2000        42
    29.2200        34
    29.2400        36
    29.2600        44
    29.2800        54
    29.3000        32
    29.3200        46
    29.3400        34
    29.3600        50
    29.3800        42
    29.4000        46
    29.4200        38
    29.4400        40
    29.4600        42
    29.4800        54
    29.5000        34
    29.5200        42
    29.5400        36
    29.5600        46
    29.5800        42
    29.6000        34
    29.6200        38
    29.6400        42
    29.6600        40
    29.6800        32
    29.7000        42
    29.7200        48
    29.7400        46
    29.7600        40
    29.7800        42
    29.8000        34
    29.8200        52
    29.8400        38
    29.8600        52
    29.8800        46
    29.9000        42
    29.9200        32
    29.9400        46
    29.9600        48
    29.9800        38
    30.0000        32
    30.0200        38
    30.0400        48
    30.0600        46
    30.0800        48
    30.1000        46
    30.1200        46
    30.1400        52
    30.1600        50
    30.1800        40
    30.2000        44
    30.2200        38
    30.2400        44
    30.2600        30
    30.2800        46
    30.3000        26
    30.3200        44
    30.3400        40
    30.3600        40
    30.3800        36
    30.4000        30
    30.4200        32
    30.4400        40
    30.4600        40
    30.4800        40
    30.5000        30
    30.5200        36
    30.5400        44
    30.5600        48
    30.5800        32
    30.6000        38
    30.6200        36
    30.6400        30
    30.6600        44
    30.6800        26
    30.7000        48
    30.7200        36
    30.7400        42
    30.7600        44
    30.7800        56
    30.8000        50
    30.8200        36
    30.8400        40
    30.8600        34
    30.8800        34
    30.9000        46
    30.9200        44
    30.9400        48
    30.9600        40
    30.9800        36
    31.0000        52
    31.0200        36
    31.0400        28
    31.0600        36
    31.0800        42
    31.1000        38
    31.1200        42
    31.1400        36
    31.1600        22
    31.1800        46
    31.2000        52
    31.2200        36
    31.2400        32
    31.2600        34
    31.2800        38
    31.3000        32
    31.3200        46
    31.3400        32
    31.3600        38
    31.3800        44
    31.4000        34
    31.4200        40
    31.4400        40
    31.4600        46
    31.4800        46
    31.5000        48
    31.5200        36
    31.5400        38
    31.5600        38
    31.5800        46
    31.6000        46
    31.6200        36
    31.6400        34
    31.6600        40
    31.6800        38
    31.7000        56
    31.7200        36
    31.7400        58
    31.7600        44
    31.7800        38
    31.8000        42
    31.8200        38
    31.8400        34
    31.8600        42
    31.8800        38
    31.9000        48
    31.9200        46
    31.9400        46
    31.9600        42
    31.9800        46
    32.0000        60
    32.0200        64
    32.0400        54
    32.0600        42
    32.0800        52
    32.1000        42
    32.1200        52
    32.1400        46
    32.1600        40
    32.1800        50
    32.2000        46
    32.2200        62
    32.2400        40
    32.2600        44
    32.2800        40
    32.3000        50
    32.3200        44
    32.3400        32
    32.3600        58
    32.3800        52
    32.4000        64
    32.4200        48
    32.4400        56
    32.4600        50
    32.4800        62
    32.5000        66
    32.5200        36
    32.5400        60
    32.5600        48
    32.5800        52
    32.6000        58
    32.6200        64
    32.6400        64
    32.6600        76
    32.6800        66
    32.7000        74
    32.7200        72
    32.7400        76
    32.7600        74
    32.7800        66
    32.8000       112
    32.8200        96
    32.8400        98
    32.8600       100
    32.8800        98
    32.9000        94
    32.9200       120
    32.9400       140
    32.9600       132
    32.9800       120
    33.0000       114
    33.0200       130
    33.0400       112
    33.0600       118
    33.0800       114
    33.1000       114
    33.1200       106
    33.1400       114
    33.1600       104
    33.1800        98
    33.2000       116
    33.2200        90
    33.2400       112
    33.2600       112
    33.2800        92
    33.3000        98
    33.3200       100
    33.3400        98
    33.3600        78
    33.3800        78
    33.4000        74
    33.4200        74
    33.4400        66
    33.4600        70
    33.4800        64
    33.5000        66
    33.5200        58
    33.5400        68
    33.5600        68
    33.5800        50
    33.6000        54
    33.6200        80
    33.6400        56
    33.6600        70
    33.6800        64
    33.7000        48
    33.7200        50
    33.7400        74
    33.7600        58
    33.7800        52
    33.8000        50
    33.8200        56
    33.8400        58
    33.8600        54
    33.8800        76
    33.9000        56
    33.9200        68
    33.9400        58
    33.9600        50
    33.9800        64
    34.0000        44
    34.0200        48
    34.0400        42
    34.0600        50
    34.0800        48
    34.1000        54
    34.1200        52
    34.1400        46
    34.1600        70
    34.1800        60
    34.2000        42
    34.2200        62
    34.2400        52
    34.2600        72
    34.2800        56
    34.3000        60
    34.3200        64
    34.3400        78
    34.3600        68
    34.3800        60
    34.4000        92
    34.4200        98
    34.4400        86
    34.4600       106
    34.4800        84
    34.5000       118
    34.5200       102
    34.5400       122
    34.5600       114
    34.5800       108
    34.6000       136
    34.6200       102
    34.6400       100
    34.6600       100
    34.6800        86
    34.7000        92
    34.7200        98
    34.7400        94
    34.7600        64
    34.7800        88
    34.8000        64
    34.8200        66
    34.8400        66
    34.8600        56
    34.8800        52
    34.9000        64
    34.9200        56
    34.9400        70
    34.9600        64
    34.9800        54
    35.0000        52
    35.0200        58
    35.0400        42
    35.0600        56
    35.0800        56
    35.1000        58
    35.1200        68
    35.1400        64
    35.1600        54
    35.1800        74
    35.2000        62
    35.2200        56
    35.2400        70
    35.2600        58
    35.2800        52
    35.3000        68
    35.3200        54
    35.3400        60
    35.3600        60
    35.3800        68
    35.4000        72
    35.4200        66
    35.4400        80
    35.4600        62
    35.4800        70
    35.5000        78
    35.5200        76
    35.5400        60
    35.5600        58
    35.5800        72
    35.6000        68
    35.6200        88
    35.6400        70
    35.6600        84
    35.6800        84
    35.7000        74
    35.7200        82
    35.7400        96
    35.7600        94
    35.7800        84
    35.8000       112
    35.8200        96
    35.8400       116
    35.8600       112
    35.8800        90
    35.9000       112
    35.9200       138
    35.9400       130
    35.9600       122
    35.9800       154
    36.0000       130
    36.0200       180
    36.0400       162
    36.0600       164
    36.0800       170
    36.1000       166
    36.1200       180
    36.1400       194
    36.1600       192
    36.1800       208
    36.2000       210
    36.2200       220
    36.2400       206
    36.2600       224
    36.2800       206
    36.3000       242
    36.3200       248
    36.3400       214
    36.3600       256
    36.3800       240
    36.4000       234
    36.4200       250
    36.4400       226
    36.4600       230
    36.4800       230
    36.5000       222
    36.5200       224
    36.5400       264
    36.5600       204
    36.5800       206
    36.6000       214
    36.6200       196
    36.6400       210
    36.6600       184
    36.6800       150
    36.7000       148
    36.7200       142
    36.7400       134
    36.7600       120
    36.7800       112
    36.8000       130
    36.8200       110
    36.8400       114
    36.8600       100
    36.8800        98
    36.9000        82
    36.9200        82
    36.9400        80
    36.9600        76
    36.9800       108
    37.0000        76
    37.0200        72
    37.0400        80
    37.0600        72
    37.0800        66
    37.1000        60
    37.1200        84
    37.1400        58
    37.1600        64
    37.1800        72
    37.2000        54
    37.2200        66
    37.2400        60
    37.2600        52
    37.2800        60
    37.3000        54
    37.3200        42
    37.3400        32
    37.3600        54
    37.3800        60
    37.4000        40
    37.4200        56
    37.4400        56
    37.4600        50
    37.4800        60
    37.5000        56
    37.5200        60
    37.5400        50
    37.5600        40
    37.5800        58
    37.6000        44
    37.6200        54
    37.6400        36
    37.6600        52
    37.6800        64
    37.7000        42
    37.7200        48
    37.7400        56
    37.7600        52
    37.7800        64
    37.8000        62
    37.8200        66
    37.8400        58
    37.8600        68
    37.8800        58
    37.9000        48
    37.9200        50
    37.9400        48
    37.9600        62
    37.9800        68
    38.0000        56
    38.0200        70
    38.0400        68
    38.0600        64
    38.0800        54
    38.1000        62
    38.1200        48
    38.1400        54
    38.1600        52
    38.1800        64
    38.2000        58
    38.2200        52
    38.2400        60
    38.2600        42
    38.2800        56
    38.3000        60
    38.3200        42
    38.3400        42
    38.3600        48
    38.3800        46
    38.4000        42
    38.4200        58
    38.4400        34
    38.4600        58
    38.4800        52
    38.5000        60
    38.5200        48
    38.5400        60
    38.5600        36
    38.5800        46
    38.6000        58
    38.6200        38
    38.6400        50
    38.6600        46
    38.6800        42
    38.7000        68
    38.7200        46
    38.7400        50
    38.7600        54
    38.7800        48
    38.8000        42
    38.8200        40
    38.8400        38
    38.8600        58
    38.8800        44
    38.9000        62
    38.9200        44
    38.9400        40
    38.9600        42
    38.9800        40
    39.0000        40
    39.0200        54
    39.0400        42
    39.0600        38
    39.0800        40
    39.1000        40
    39.1200        32
    39.1400        44
    39.1600        48
    39.1800        54
    39.2000        38
    39.2200        38
    39.2400        40
    39.2600        48
    39.2800        50
    39.3000        54
    39.3200        56
    39.3400        42
    39.3600        36
    39.3800        54
    39.4000        58
    39.4200        52
    39.4400        48
    39.4600        60
    39.4800        50
    39.5000        38
    39.5200        52
    39.5400        52
    39.5600        52
    39.5800        52
    39.6000        64
    39.6200        66
    39.6400        66
    39.6600        52
    39.6800        56
    39.7000        68
    39.7200        66
    39.7400        64
    39.7600        70
    39.7800        76
    39.8000        78
    39.8200        62
    39.8400        90
    39.8600        76
    39.8800        82
    39.9000        80
    39.9200        68
    39.9400        66
    39.9600        48
    39.9800        62
    40.0000        68
    40.0200        56
    40.0400        72
    40.0600        54
    40.0800        46
    40.1000        62
    40.1200        62
    40.1400        58
    40.1600        48
    40.1800        52
    40.2000        44
    40.2200        64
    40.2400        56
    40.2600        46
    40.2800        40
    40.3000        56
    40.3200        46
    40.3400        44
    40.3600        48
    40.3800        40
    40.4000        50
    40.4200        42
    40.4400        54
    40.4600        44
    40.4800        62
    40.5000        48
    40.5200        42
    40.5400        58
    40.5600        42
    40.5800        52
    40.6000        54
    40.6200        34
    40.6400        38
    40.6600        44
    40.6800        46
    40.7000        42
    40.7200        66
    40.7400        48
    40.7600        44
    40.7800        64
    40.8000        48
    40.8200        56
    40.8400        56
    40.8600        68
    40.8800        60
    40.9000        68
    40.9200        66
    40.9400        80
    40.9600        76
    40.9800        82
    41.0000        68
    41.0200        70
    41.0400        72
    41.0600        76
    41.0800        80
    41.1000        68
    41.1200        68
    41.1400        68
    41.1600        62
    41.1800        68
    41.2000        60
    41.2200        66
    41.2400        64
    41.2600        60
    41.2800        74
    41.3000        80
    41.3200        54
    41.3400        54
    41.3600        54
    41.3800        62
    41.4000        44
    41.4200        36
    41.4400        42
    41.4600        56
    41.4800        52
    41.5000        50
    41.5200        52
    41.5400        40
    41.5600        42
    41.5800        32
    41.6000        36
    41.6200        42
    41.6400        46
    41.6600        46
    41.6800        54
    41.7000        30
    41.7200        48
    41.7400        42
    41.7600        40
    41.7800        40
    41.8000        42
    41.8200        40
    41.8400        50
    41.8600        46
    41.8800        32
    41.9000        40
    41.9200        40
    41.9400        30
    41.9600        38
    41.9800        40
    42.0000        52
    42.0200        46
    42.0400        38
    42.0600        32
    42.0800        32
    42.1000        32
    42.1200        22
    42.1400        40
    42.1600        24
    42.1800        40
    42.2000        34
    42.2200        38
    42.2400        36
    42.2600        50
    42.2800        40
    42.3000        42
    42.3200        40
    42.3400        34
    42.3600        42
    42.3800        38
    42.4000        28
    42.4200        44
    42.4400        32
    42.4600        36
    42.4800        44
    42.5000        42
    42.5200        36
    42.5400        46
    42.5600        30
    42.5800        24
    42.6000        34
    42.6200        28
    42.6400        38
    42.6600        34
    42.6800        32
    42.7000        30
    42.7200        48
    42.7400        40
    42.7600        32
    42.7800        36
    42.8000        58
    42.8200        42
    42.8400        40
    42.8600        40
    42.8800        36
    42.9000        46
    42.9200        32
    42.9400        36
    42.9600        40
    42.9800        26
    43.0000        34
    43.0200        54
    43.0400        42
    43.0600        54
    43.0800        44
    43.1000        44
    43.1200        44
    43.1400        40
    43.1600        54
    43.1800        48
    43.2000        50
    43.2200        34
    43.2400        42
    43.2600        38
    43.2800        48
    43.3000        56
    43.3200        38
    43.3400        46
    43.3600        44
    43.3800        26
    43.4000        36
    43.4200        44
    43.4400        40
    43.4600        38
    43.4800        36
    43.5000        36
    43.5200        52
    43.5400        32
    43.5600        48
    43.5800        32
    43.6000        44
    43.6200        42
    43.6400        42
    43.6600        34
    43.6800        30
    43.7000        34
    43.7200        28
    43.7400        28
    43.7600        50
    43.7800        26
    43.8000        36
    43.8200        32
    43.8400        42
    43.8600        42
    43.8800        36
    43.9000        34
    43.9200        26
    43.9400        40
    43.9600        44
    43.9800        36
    44.0000        42
    44.0200        38
    44.0400        40
    44.0600        24
    44.0800        34
    44.1000        38
    44.1200        38
    44.1400        46
    44.1600        42
    44.1800        36
    44.2000        24
    44.2200        44
    44.2400        40
    44.2600        34
    44.2800        24
    44.3000        28
    44.3200        34
    44.3400        40
    44.3600        28
    44.3800        44
    44.4000        34
    44.4200        34
    44.4400        44
    44.4600        38
    44.4800        38
    44.5000        54
    44.5200        44
    44.5400        32
    44.5600        30
    44.5800        48
    44.6000        38
    44.6200        34
    44.6400        44
    44.6600        40
    44.6800        42
    44.7000        30
    44.7200        46
    44.7400        30
    44.7600        42
    44.7800        36
    44.8000        42
    44.8200        44
    44.8400        44
    44.8600        32
    44.8800        36
    44.9000        58
    44.9200        50
    44.9400        40
    44.9600        32
    44.9800        50
    45.0000        44
    45.0200        34
    45.0400        50
    45.0600        40
    45.0800        44
    45.1000        48
    45.1200        54
    45.1400        46
    45.1600        32
    45.1800        42
    45.2000        44
    45.2200        48
    45.2400        48
    45.2600        30
    45.2800        38
    45.3000        42
    45.3200        52
    45.3400        42
    45.3600        38
    45.3800        36
    45.4000        40
    45.4200        42
    45.4400        34
    45.4600        34
    45.4800        48
    45.5000        36
    45.5200        38
    45.5400        50
    45.5600        42
    45.5800        40
    45.6000        36
    45.6200        28
    45.6400        50
    45.6600        48
    45.6800        38
    45.7000        38
    45.7200        56
    45.7400        32
    45.7600        40
    45.7800        32
    45.8000        30
    45.8200        44
    45.8400        38
    45.8600        44
    45.8800        44
    45.9000        44
    45.9200        36
    45.9400        56
    45.9600        48
    45.9800        36
    46.0000        42
    46.0200        42
    46.0400        46
    46.0600        38
    46.0800        46
    46.1000        50
    46.1200        42
    46.1400        40
    46.1600        36
    46.1800        46
    46.2000        52
    46.2200        54
    46.2400        46
    46.2600        48
    46.2800        50
    46.3000        50
    46.3200        32
    46.3400        58
    46.3600        50
    46.3800        42
    46.4000        72
    46.4200        48
    46.4400        56
    46.4600        66
    46.4800        58
    46.5000        80
    46.5200        78
    46.5400        78
    46.5600        84
    46.5800        80
    46.6000        86
    46.6200        86
    46.6400        90
    46.6600        76
    46.6800        88
    46.7000        90
    46.7200       106
    46.7400        92
    46.7600        90
    46.7800        98
    46.8000        92
    46.8200        78
    46.8400        90
    46.8600        90
    46.8800        78
    46.9000        54
    46.9200        80
    46.9400        80
    46.9600        74
    46.9800        54
    47.0000        68
    47.0200        70
    47.0400        68
    47.0600        66
    47.0800        86
    47.1000        60
    47.1200        62
    47.1400        54
    47.1600        64
    47.1800        74
    47.2000        78
    47.2200        72
    47.2400        70
    47.2600        60
    47.2800        54
    47.3000        60
    47.3200        46
    47.3400        56
    47.3600        50
    47.3800        52
    47.4000        46
    47.4200        44
    47.4400        58
    47.4600        46
    47.4800        48
    47.5000        38
    47.5200        28
    47.5400        46
    47.5600        48
    47.5800        32
    47.6000        38
    47.6200        42
    47.6400        54
    47.6600        44
    47.6800        38
    47.7000        30
    47.7200        46
    47.7400        36
    47.7600        40
    47.7800        38
    47.8000        38
    47.8200        50
    47.8400        38
    47.8600        36
    47.8800        38
    47.9000        42
    47.9200        44
    47.9400        32
    47.9600        28
    47.9800        40
    48.0000        34
    48.0200        36
    48.0400        24
    48.0600        44
    48.0800        34
    48.1000        32
    48.1200        46
    48.1400        34
    48.1600        46
    48.1800        30
    48.2000        34
    48.2200        40
    48.2400        34
    48.2600        38
    48.2800        34
    48.3000        30
    48.3200        26
    48.3400        34
    48.3600        38
    48.3800        32
    48.4000        38
    48.4200        40
    48.4400        46
    48.4600        36
    48.4800        54
    48.5000        34
    48.5200        32
    48.5400        42
    48.5600        28
    48.5800        32
    48.6000        36
    48.6200        28
    48.6400        40
    48.6600        32
    48.6800        40
    48.7000        50
    48.7200        44
    48.7400        30
    48.7600        38
    48.7800        42
    48.8000        38
    48.8200        36
    48.8400        34
    48.8600        46
    48.8800        40
    48.9000        28
    48.9200        32
    48.9400        40
    48.9600        32
    48.9800        38
    49.0000        54
    49.0200        44
    49.0400        30
    49.0600        32
    49.0800        40
    49.1000        42
    49.1200        42
    49.1400        44
    49.1600        40
    49.1800        48
    49.2000        44
    49.2200        48
    49.2400        46
    49.2600        42
    49.2800        42
    49.3000        44
    49.3200        48
    49.3400        46
    49.3600        30
    49.3800        30
    49.4000        34
    49.4200        42
    49.4400        44
    49.4600        48
    49.4800        54
    49.5000        44
    49.5200        46
    49.5400        34
    49.5600        34
    49.5800        40
    49.6000        34
    49.6200        46
    49.6400        42
    49.6600        40
    49.6800        48
    49.7000        40
    49.7200        40
    49.7400        34
    49.7600        42
    49.7800        34
    49.8000        54
    49.8200        40
    49.8400        42
    49.8600        46
    49.8800        38
    49.9000        48
    49.9200        50
    49.9400        46
    49.9600        42
    49.9800        46
    50.0000        34
    50.0200        40
    50.0400        50
    50.0600        36
    50.0800        46
    50.1000        46
    50.1200        52
    50.1400        48
    50.1600        62
    50.1800        48
    50.2000        52
    50.2200        48
    50.2400        50
    50.2600        52
    50.2800        50
    50.3000        52
    50.3200        46
    50.3400        28
    50.3600        68
    50.3800        66
    50.4000        48
    50.4200        56
    50.4400        52
    50.4600        40
    50.4800        44
    50.5000        42
    50.5200        42
    50.5400        38
    50.5600        66
    50.5800        52
    50.6000        56
    50.6200        46
    50.6400        28
    50.6600        34
    50.6800        42
    50.7000        44
    50.7200        34
    50.7400        44
    50.7600        46
    50.7800        54
    50.8000        36
    50.8200        52
    50.8400        44
    50.8600        44
    50.8800        46
    50.9000        46
    50.9200        46
    50.9400        44
    50.9600        40
    50.9800        34
    51.0000        44
    51.0200        40
    51.0400        46
    51.0600        46
    51.0800        40
    51.1000        30
    51.1200        46
    51.1400        38
    51.1600        50
    51.1800        48
    51.2000        42
    51.2200        48
    51.2400        44
    51.2600        40
    51.2800        38
    51.3000        36
    51.3200        48
    51.3400        48
    51.3600        40
    51.3800        36
    51.4000        26
    51.4200        52
    51.4400        44
    51.4600        38
    51.4800        30
    51.5000        36
    51.5200        34
    51.5400        48
    51.5600        50
    51.5800        36
    51.6000        34
    51.6200        52
    51.6400        28
    51.6600        56
    51.6800        38
    51.7000        34
    51.7200        34
    51.7400        44
    51.7600        46
    51.7800        38
    51.8000        38
    51.8200        38
    51.8400        36
    51.8600        34
    51.8800        36
    51.9000        54
    51.9200        44
    51.9400        38
    51.9600        38
    51.9800        50
    52.0000        56
    52.0200        54
    52.0400        40
    52.0600        48
    52.0800        36
    52.1000        42
    52.1200        38
    52.1400        54
    52.1600        58
    52.1800        48
    52.2000        60
    52.2200        48
    52.2400        62
    52.2600        58
    52.2800        66
    52.3000        68
    52.3200        58
    52.3400        64
    52.3600        46
    52.3800        64
    52.4000        56
    52.4200        44
    52.4400        64
    52.4600        76
    52.4800        80
    52.5000        76
    52.5200        76
    52.5400        82
    52.5600        86
    52.5800        90
    52.6000        78
    52.6200        82
    52.6400       102
    52.6600        84
    52.6800        88
    52.7000        96
    52.7200        98
    52.7400       100
    52.7600        92
    52.7800       100
    52.8000       102
    52.8200       100
    52.8400       100
    52.8600       104
    52.8800       114
    52.9000       124
    52.9200        86
    52.9400        84
    52.9600        72
    52.9800        98
    53.0000       110
    53.0200       110
    53.0400       102
    53.0600       104
    53.0800        98
    53.1000       100
    53.1200        94
    53.1400        90
    53.1600        98
    53.1800        72
    53.2000        94
    53.2200        82
    53.2400        74
    53.2600        74
    53.2800        82
    53.3000        68
    53.3200        70
    53.3400        72
    53.3600        72
    53.3800        70
    53.4000        72
    53.4200        68
    53.4400        58
    53.4600        68
    53.4800        74
    53.5000        58
    53.5200        68
    53.5400        58
    53.5600        66
    53.5800        54
    53.6000        60
    53.6200        58
    53.6400        50
    53.6600        56
    53.6800        54
    53.7000        60
    53.7200        62
    53.7400        56
    53.7600        62
    53.7800        56
    53.8000        58
    53.8200        66
    53.8400        56
    53.8600        62
    53.8800        74
    53.9000        78
    53.9200        54
    53.9400        64
    53.9600        64
    53.9800        52
    54.0000        60
    54.0200        60
    54.0400        64
    54.0600        60
    54.0800        52
    54.1000        48
    54.1200        54
    54.1400        36
    54.1600        54
    54.1800        44
    54.2000        48
    54.2200        46
    54.2400        52
    54.2600        52
    54.2800        56
    54.3000        40
    54.3200        48
    54.3400        40
    54.3600        42
    54.3800        46
    54.4000        52
    54.4200        54
    54.4400        44
    54.4600        40
    54.4800        50
    54.5000        52
    54.5200        42
    54.5400        34
    54.5600        36
    54.5800        42
    54.6000        54
    54.6200        38
    54.6400        44
    54.6600        48
    54.6800        38
    54.7000        36
    54.7200        40
    54.7400        36
    54.7600        48
    54.7800        42
    54.8000        38
    54.8200        38
    54.8400        40
    54.8600        42
    54.8800        32
    54.9000        38
    54.9200        36
    54.9400        40
    54.9600        42
    54.9800        48
    55.0000        32
    55.0200        42
    55.0400        38
    55.0600        28
    55.0800        50
    55.1000        54
    55.1200        44
    55.1400        50
    55.1600        30
    55.1800        48
    55.2000        36
    55.2200        50
    55.2400        42
    55.2600        48
    55.2800        54
    55.3000        48
    55.3200        50
    55.3400        50
    55.3600        42
    55.3800        54
    55.4000        56
    55.4200        36
    55.4400        34
    55.4600        44
    55.4800        42
    55.5000        38
    55.5200        32
    55.5400        46
    55.5600        36
    55.5800        36
    55.6000        42
    55.6200        42
    55.6400        46
    55.6600        34
    55.6800        32
    55.7000        50
    55.7200        32
    55.7400        44
    55.7600        48
    55.7800        40
    55.8000        46
    55.8200        44
    55.8400        32
    55.8600        36
    55.8800        36
    55.9000        42
    55.9200        36
    55.9400        48
    55.9600        44
    55.9800        26
    56.0000        42
    56.0200        40
    56.0400        36
    56.0600        44
    56.0800        38
    56.1000        34
    56.1200        40
    56.1400        42
    56.1600        36
    56.1800        38
    56.2000        46
    56.2200        28
    56.2400        34
    56.2600        36
    56.2800        32
    56.3000        40
    56.3200        38
    56.3400        38
    56.3600        34
    56.3800        48
    56.4000        30
    56.4200        46
    56.4400        42
    56.4600        36
    56.4800        48
    56.5000        50
    56.5200        26
    56.5400        36
    56.5600        36
    56.5800        38
    56.6000        50
    56.6200        38
    56.6400        42
    56.6600        46
    56.6800        48
    56.7000        42
    56.7200        50
    56.7400        36
    56.7600        38
    56.7800        36
    56.8000        46
    56.8200        38
    56.8400        40
    56.8600        32
    56.8800        30
    56.9000        36
    56.9200        38
    56.9400        42
    56.9600        40
    56.9800        46
    57.0000        46
    57.0200        52
    57.0400        56
    57.0600        50
    57.0800        54
    57.1000        56
    57.1200        44
    57.1400        52
    57.1600        44
    57.1800        44
    57.2000        50
    57.2200        42
    57.2400        36
    57.2600        62
    57.2800        38
    57.3000        52
    57.3200        48
    57.3400        38
    57.3600        44
    57.3800        34
    57.4000        64
    57.4200        44
    57.4400        46
    57.4600        42
    57.4800        40
    57.5000        42
    57.5200        30
    57.5400        40
    57.5600        42
    57.5800        42
    57.6000        32
    57.6200        46
    57.6400        46
    57.6600        50
    57.6800        38
    57.7000        38
    57.7200        30
    57.7400        48
    57.7600        46
    57.7800        28
    57.8000        34
    57.8200        38
    57.8400        32
    57.8600        54
    57.8800        40
    57.9000        36
    57.9200        36
    57.9400        46
    57.9600        40
    57.9800        36
    58.0000        44
    58.0200        42
    58.0400        40
    58.0600        44
    58.0800        46
    58.1000        34
    58.1200        32
    58.1400        50
    58.1600        42
    58.1800        32
    58.2000        48
    58.2200        50
    58.2400        44
    58.2600        52
    58.2800        50
    58.3000        40
    58.3200        54
    58.3400        32
    58.3600        50
    58.3800        50
    58.4000        54
    58.4200        52
    58.4400        44
    58.4600        60
    58.4800        58
    58.5000        46
    58.5200        52
    58.5400        50
    58.5600        48
    58.5800        62
    58.6000        64
    58.6200        68
    58.6400        58
    58.6600        68
    58.6800        88
    58.7000        74
    58.7200        94
    58.7400        76
    58.7600        92
    58.7800        72
    58.8000        88
    58.8200       100
    58.8400       108
    58.8600        62
    58.8800        88
    58.9000        98
    58.9200        94
    58.9400        98
    58.9600        84
    58.9800        96
    59.0000        84
    59.0200        94
    59.0400        80
    59.0600        78
    59.0800        70
    59.1000        68
    59.1200        76
    59.1400        56
    59.1600        54
    59.1800        64
    59.2000        62
    59.2200        60
    59.2400        56
    59.2600        52
    59.2800        46
    59.3000        58
    59.3200        44
    59.3400        54
    59.3600        54
    59.3800        54
    59.4000        34
    59.4200        50
    59.4400        50
    59.4600        40
    59.4800        50
    59.5000        50
    59.5200        48
    59.5400        38
    59.5600        46
    59.5800        48
    59.6000        34
    59.6200        48
    59.6400        36
    59.6600        54
    59.6800        42
    59.7000        44
    59.7200        48
    59.7400        50
    59.7600        34
    59.7800        46
    59.8000        54
    59.8200        42
    59.8400        44
    59.8600        50
    59.8800        54
    59.9000        44
    59.9200        44
    59.9400        44
    59.9600        48
    59.9800        54
    60.0000        40
    60.0200        44
    60.0400        56
    60.0600        56
    60.0800        62
    60.1000        60
    60.1200        62
    60.1400        60
    60.1600        72
    60.1800        70
    60.2000        56
    60.2200        50
    60.2400        58
    60.2600        78
    60.2800        44
    60.3000        60
    60.3200        64
    60.3400        66
    60.3600        64
    60.3800        52
    60.4000        56
    60.4200        62
    60.4400        64
    60.4600        52
    60.4800        60
    60.5000        58
    60.5200        60
    60.5400        54
    60.5600        66
    60.5800        56
    60.6000        66
    60.6200        58
    60.6400        54
    60.6600        70
    60.6800        66
    60.7000        64
    60.7200        66
    60.7400        44
    60.7600        56
    60.7800        58
    60.8000        60
    60.8200        50
    60.8400        68
    60.8600        50
    60.8800        74
    60.9000        62
    60.9200        66
    60.9400        64
    60.9600        68
    60.9800        74
    61.0000        62
    61.0200        84
    61.0400        84
    61.0600        94
    61.0800        78
    61.1000        86
    61.1200        94
    61.1400        90
    61.1600       112
    61.1800        66
    61.2000        78
    61.2200        80
    61.2400        84
    61.2600        68
    61.2800        78
    61.3000        70
    61.3200        82
    61.3400        66
    61.3600        46
    61.3800        64
    61.4000        68
    61.4200        52
    61.4400        46
    61.4600        58
    61.4800        56
    61.5000        48
    61.5200        50
    61.5400        42
    61.5600        34
    61.5800        48
    61.6000        48
    61.6200        46
    61.6400        50
    61.6600        46
    61.6800        38
    61.7000        42
    61.7200        48
    61.7400        46
    61.7600        48
    61.7800        38
    61.8000        44
    61.8200        48
    61.8400        40
    61.8600        42
    61.8800        42
    61.9000        48
    61.9200        46
    61.9400        38
    61.9600        34
    61.9800        36
    62.0000        48
    62.0200        38
    62.0400        42
    62.0600        50
    62.0800        40
    62.1000        40
    62.1200        42
    62.1400        34
    62.1600        52
    62.1800        38
    62.2000        44
    62.2200        54
    62.2400        46
    62.2600        28
    62.2800        50
    62.3000        46
    62.3200        36
    62.3400        30
    62.3600        34
    62.3800        40
    62.4000        46
    62.4200        36
    62.4400        38
    62.4600        34
    62.4800        42
    62.5000        38
    62.5200        36
    62.5400        40
    62.5600        52
    62.5800        44
    62.6000        58
    62.6200        42
    62.6400        44
    62.6600        30
    62.6800        48
    62.7000        46
    62.7200        40
    62.7400        38
    62.7600        42
    62.7800        46
    62.8000        48
    62.8200        48
    62.8400        48
    62.8600        50
    62.8800        54
    62.9000        48
    62.9200        48
    62.9400        38
    62.9600        38
    62.9800        54
    63.0000        44
    63.0200        48
    63.0400        50
    63.0600        40
    63.0800        42
    63.1000        46
    63.1200        42
    63.1400        44
    63.1600        48
    63.1800        38
    63.2000        54
    63.2200        36
    63.2400        58
    63.2600        40
    63.2800        40
    63.3000        56
    63.3200        40
    63.3400        40
    63.3600        38
    63.3800        50
    63.4000        42
    63.4200        52
    63.4400        42
    63.4600        58
    63.4800        52
    63.5000        52
    63.5200        42
    63.5400        36
    63.5600        38
    63.5800        68
    63.6000        46
    63.6200        56
    63.6400        66
    63.6600        44
    63.6800        56
    63.7000        66
    63.7200        64
    63.7400        52
    63.7600        58
    63.7800        72
    63.8000        54
    63.8200        64
    63.8400        58
    63.8600        48
    63.8800        68
    63.9000        62
    63.9200        60
    63.9400        64
    63.9600        56
    63.9800        50
    64.0000        58
    64.0200        50
    64.0400        54
    64.0600        68
    64.0800        52
    64.1000        50
    64.1200        54
    64.1400        48
    64.1600        46
    64.1800        42
    64.2000        38
    64.2200        46
    64.2400        44
    64.2600        50
    64.2800        38
    64.3000        40
    64.3200        46
    64.3400        52
    64.3600        42
    64.3800        36
    64.4000        54
    64.4200        42
    64.4400        50
    64.4600        46
    64.4800        32
    64.5000        34
    64.5200        44
    64.5400        50
    64.5600        44
    64.5800        54
    64.6000        48
    64.6200        48
    64.6400        50
    64.6600        40
    64.6800        44
    64.7000        44
    64.7200        40
    64.7400        38
    64.7600        42
    64.7800        50
    64.8000        50
    64.8200        40
    64.8400        52
    64.8600        46
    64.8800        48
    64.9000        42
    64.9200        38
    64.9400        48
    64.9600        46
    64.9800        44
    65.0000        42
