/////////////////////////////////////////////////////////////////////////////////
/// Profile Data Ascii Dump (XRD)                                             ///
/////////////////////////////////////////////////////////////////////////////////

  Group     : Swayze
  Data      : GDS817
  File Name : GDS817.RAW

# Profile Datafile
          comment             = Allophane 
          date & time         = 08-03-12 08:02:14 

# Measurement Condition
    X-ray tube
          target              = Cu 
          voltage             = 40.0 (kV)
          current             = 30.0 (mA)
    Slits
          divergence slit     = 2.00000 (deg) 
          scatter slit        = 2.00000 (deg) 
          receiving slit      = 0.15000 (mm)  
    Scanning
          drive axis          = Theta-2Theta 
          scan range          =    4.000 -   65.000 
          scan mode           = Continuous Scan 
          scan speed          =   2.0000 (deg/min) 
          sampling pitch      =   0.0200 (deg) 
          preset time         =   0.60 (sec) 

# Data      [ Total No. = 3051 ]
  <2Theta>   <   I   >
     4.0000       178
     4.0200       186
     4.0400       192
     4.0600       214
     4.0800       204
     4.1000       172
     4.1200       184
     4.1400       190
     4.1600       160
     4.1800       206
     4.2000       192
     4.2200       200
     4.2400       194
     4.2600       216
     4.2800       174
     4.3000       188
     4.3200       176
     4.3400       180
     4.3600       208
     4.3800       188
     4.4000       174
     4.4200       178
     4.4400       178
     4.4600       168
     4.4800       178
     4.5000       164
     4.5200       180
     4.5400       160
     4.5600       146
     4.5800       162
     4.6000       176
     4.6200       192
     4.6400       194
     4.6600       158
     4.6800       144
     4.7000       192
     4.7200       176
     4.7400       168
     4.7600       188
     4.7800       176
     4.8000       176
     4.8200       180
     4.8400       162
     4.8600       138
     4.8800       164
     4.9000       160
     4.9200       190
     4.9400       172
     4.9600       152
     4.9800       164
     5.0000       186
     5.0200       162
     5.0400       172
     5.0600       164
     5.0800       160
     5.1000       186
     5.1200       170
     5.1400       178
     5.1600       154
     5.1800       180
     5.2000       174
     5.2200       190
     5.2400       164
     5.2600       164
     5.2800       188
     5.3000       166
     5.3200       166
     5.3400       170
     5.3600       162
     5.3800       174
     5.4000       158
     5.4200       194
     5.4400       190
     5.4600       172
     5.4800       218
     5.5000       174
     5.5200       176
     5.5400       160
     5.5600       168
     5.5800       148
     5.6000       176
     5.6200       164
     5.6400       162
     5.6600       196
     5.6800       172
     5.7000       182
     5.7200       188
     5.7400       156
     5.7600       146
     5.7800       164
     5.8000       164
     5.8200       176
     5.8400       170
     5.8600       146
     5.8800       202
     5.9000       164
     5.9200       174
     5.9400       162
     5.9600       160
     5.9800       154
     6.0000       176
     6.0200       184
     6.0400       182
     6.0600       162
     6.0800       160
     6.1000       148
     6.1200       154
     6.1400       186
     6.1600       176
     6.1800       178
     6.2000       170
     6.2200       152
     6.2400       200
     6.2600       172
     6.2800       150
     6.3000       154
     6.3200       188
     6.3400       186
     6.3600       184
     6.3800       182
     6.4000       150
     6.4200       154
     6.4400       168
     6.4600       160
     6.4800       156
     6.5000       130
     6.5200       144
     6.5400       166
     6.5600       130
     6.5800       156
     6.6000       156
     6.6200       150
     6.6400       132
     6.6600       146
     6.6800       134
     6.7000       140
     6.7200       156
     6.7400       146
     6.7600       136
     6.7800       138
     6.8000       140
     6.8200       144
     6.8400       124
     6.8600       132
     6.8800       146
     6.9000       150
     6.9200       150
     6.9400       140
     6.9600       140
     6.9800       138
     7.0000       128
     7.0200       124
     7.0400       152
     7.0600       130
     7.0800       136
     7.1000       132
     7.1200       142
     7.1400       142
     7.1600       128
     7.1800       144
     7.2000       120
     7.2200       136
     7.2400       134
     7.2600       146
     7.2800       120
     7.3000       130
     7.3200       138
     7.3400       128
     7.3600       130
     7.3800       122
     7.4000       120
     7.4200       106
     7.4400       132
     7.4600       122
     7.4800       116
     7.5000       132
     7.5200       114
     7.5400       122
     7.5600       122
     7.5800       120
     7.6000       124
     7.6200       110
     7.6400       100
     7.6600       110
     7.6800       130
     7.7000       134
     7.7200       138
     7.7400       112
     7.7600       122
     7.7800       144
     7.8000       128
     7.8200       104
     7.8400       128
     7.8600       122
     7.8800       126
     7.9000       114
     7.9200       142
     7.9400       110
     7.9600       104
     7.9800       128
     8.0000       136
     8.0200       104
     8.0400       110
     8.0600       116
     8.0800       134
     8.1000       138
     8.1200       114
     8.1400       118
     8.1600       108
     8.1800       130
     8.2000       110
     8.2200       126
     8.2400       118
     8.2600       122
     8.2800       128
     8.3000       116
     8.3200       120
     8.3400        92
     8.3600       142
     8.3800       122
     8.4000       106
     8.4200       102
     8.4400       120
     8.4600       132
     8.4800       118
     8.5000       144
     8.5200       118
     8.5400       114
     8.5600       112
     8.5800       110
     8.6000       108
     8.6200       130
     8.6400       102
     8.6600       106
     8.6800       110
     8.7000       120
     8.7200       112
     8.7400       126
     8.7600       114
     8.7800       110
     8.8000       126
     8.8200       136
     8.8400       130
     8.8600       116
     8.8800       122
     8.9000       100
     8.9200       128
     8.9400       122
     8.9600        90
     8.9800       100
     9.0000        92
     9.0200       124
     9.0400       104
     9.0600       118
     9.0800       124
     9.1000       116
     9.1200       126
     9.1400       122
     9.1600       124
     9.1800       116
     9.2000       136
     9.2200       102
     9.2400       122
     9.2600       112
     9.2800       124
     9.3000       104
     9.3200       112
     9.3400       130
     9.3600       116
     9.3800       128
     9.4000        88
     9.4200       112
     9.4400       130
     9.4600       102
     9.4800       110
     9.5000       128
     9.5200       124
     9.5400       116
     9.5600       128
     9.5800       124
     9.6000       110
     9.6200       118
     9.6400       100
     9.6600       104
     9.6800       128
     9.7000       134
     9.7200        98
     9.7400       106
     9.7600       110
     9.7800       116
     9.8000       130
     9.8200       152
     9.8400       118
     9.8600       102
     9.8800       128
     9.9000       118
     9.9200       110
     9.9400       118
     9.9600        86
     9.9800       104
    10.0000       118
    10.0200       122
    10.0400       118
    10.0600        98
    10.0800       130
    10.1000       110
    10.1200       120
    10.1400       108
    10.1600       126
    10.1800       112
    10.2000       116
    10.2200       100
    10.2400       102
    10.2600        98
    10.2800       120
    10.3000       110
    10.3200        98
    10.3400       112
    10.3600        98
    10.3800       118
    10.4000       114
    10.4200       116
    10.4400       106
    10.4600       102
    10.4800       100
    10.5000       102
    10.5200       102
    10.5400        88
    10.5600       110
    10.5800        76
    10.6000        88
    10.6200       108
    10.6400       118
    10.6600       108
    10.6800       102
    10.7000        90
    10.7200        96
    10.7400        88
    10.7600        82
    10.7800       104
    10.8000        98
    10.8200        98
    10.8400       116
    10.8600       104
    10.8800        86
    10.9000        92
    10.9200        96
    10.9400        90
    10.9600        78
    10.9800        88
    11.0000       108
    11.0200        90
    11.0400        90
    11.0600        98
    11.0800        96
    11.1000        94
    11.1200        82
    11.1400       104
    11.1600        96
    11.1800        88
    11.2000        88
    11.2200        90
    11.2400       110
    11.2600        96
    11.2800       106
    11.3000        76
    11.3200       112
    11.3400        90
    11.3600        86
    11.3800       102
    11.4000        98
    11.4200        98
    11.4400        78
    11.4600       100
    11.4800       104
    11.5000        76
    11.5200        90
    11.5400       118
    11.5600       110
    11.5800        92
    11.6000        72
    11.6200       108
    11.6400        88
    11.6600        82
    11.6800        90
    11.7000        98
    11.7200        82
    11.7400        86
    11.7600        90
    11.7800       104
    11.8000       102
    11.8200        92
    11.8400        88
    11.8600        94
    11.8800        78
    11.9000        92
    11.9200        88
    11.9400        98
    11.9600        76
    11.9800        82
    12.0000        94
    12.0200        76
    12.0400        78
    12.0600       100
    12.0800        90
    12.1000        78
    12.1200       102
    12.1400        68
    12.1600        86
    12.1800        94
    12.2000        98
    12.2200        84
    12.2400       102
    12.2600        88
    12.2800        82
    12.3000       100
    12.3200       108
    12.3400       110
    12.3600        90
    12.3800        90
    12.4000       114
    12.4200       108
    12.4400       102
    12.4600        90
    12.4800        84
    12.5000        90
    12.5200        78
    12.5400        88
    12.5600        78
    12.5800        72
    12.6000        80
    12.6200       100
    12.6400       104
    12.6600        94
    12.6800        74
    12.7000        80
    12.7200        76
    12.7400       100
    12.7600        92
    12.7800        74
    12.8000        88
    12.8200        94
    12.8400        94
    12.8600        72
    12.8800        74
    12.9000        68
    12.9200        64
    12.9400        72
    12.9600        80
    12.9800        88
    13.0000        74
    13.0200        88
    13.0400        82
    13.0600        92
    13.0800        72
    13.1000        92
    13.1200        74
    13.1400        84
    13.1600        80
    13.1800        62
    13.2000        70
    13.2200        82
    13.2400        62
    13.2600        62
    13.2800        80
    13.3000        70
    13.3200        78
    13.3400        68
    13.3600        72
    13.3800        92
    13.4000        64
    13.4200        68
    13.4400        68
    13.4600        76
    13.4800        72
    13.5000        58
    13.5200        90
    13.5400        76
    13.5600        70
    13.5800        66
    13.6000        72
    13.6200        78
    13.6400        74
    13.6600        74
    13.6800        92
    13.7000        56
    13.7200        80
    13.7400        96
    13.7600        76
    13.7800        72
    13.8000        72
    13.8200        68
    13.8400        78
    13.8600        70
    13.8800        68
    13.9000        66
    13.9200        86
    13.9400        66
    13.9600        58
    13.9800        54
    14.0000        70
    14.0200        76
    14.0400        60
    14.0600        78
    14.0800        60
    14.1000        70
    14.1200        54
    14.1400        74
    14.1600        72
    14.1800        56
    14.2000        70
    14.2200        58
    14.2400        68
    14.2600        66
    14.2800        58
    14.3000        78
    14.3200        64
    14.3400        74
    14.3600        52
    14.3800        72
    14.4000        68
    14.4200        70
    14.4400        62
    14.4600        64
    14.4800        72
    14.5000        50
    14.5200        84
    14.5400        78
    14.5600        66
    14.5800        62
    14.6000        68
    14.6200        78
    14.6400        78
    14.6600        56
    14.6800        46
    14.7000        72
    14.7200        68
    14.7400        66
    14.7600        62
    14.7800        84
    14.8000        60
    14.8200        70
    14.8400        58
    14.8600        56
    14.8800        72
    14.9000        58
    14.9200        80
    14.9400        74
    14.9600        54
    14.9800        60
    15.0000        48
    15.0200        70
    15.0400        76
    15.0600        72
    15.0800        68
    15.1000        58
    15.1200        60
    15.1400        68
    15.1600        68
    15.1800        58
    15.2000        56
    15.2200        76
    15.2400        68
    15.2600        62
    15.2800        56
    15.3000        60
    15.3200        66
    15.3400        68
    15.3600        62
    15.3800        90
    15.4000        60
    15.4200        58
    15.4400        52
    15.4600        64
    15.4800        52
    15.5000        70
    15.5200        54
    15.5400        58
    15.5600        70
    15.5800        62
    15.6000        68
    15.6200        64
    15.6400        68
    15.6600        52
    15.6800        58
    15.7000        60
    15.7200        66
    15.7400        68
    15.7600        52
    15.7800        62
    15.8000        64
    15.8200        44
    15.8400        70
    15.8600        48
    15.8800        58
    15.9000        72
    15.9200        60
    15.9400        52
    15.9600        78
    15.9800        50
    16.0000        52
    16.0200        72
    16.0400        58
    16.0600        44
    16.0800        66
    16.1000        56
    16.1200        48
    16.1400        64
    16.1600        66
    16.1800        66
    16.2000        72
    16.2200        58
    16.2400        58
    16.2600        64
    16.2800        44
    16.3000        50
    16.3200        68
    16.3400        72
    16.3600        66
    16.3800        70
    16.4000        68
    16.4200        60
    16.4400        52
    16.4600        62
    16.4800        72
    16.5000        58
    16.5200        68
    16.5400        62
    16.5600        64
    16.5800        64
    16.6000        62
    16.6200        56
    16.6400        62
    16.6600        62
    16.6800        68
    16.7000        54
    16.7200        68
    16.7400        70
    16.7600        60
    16.7800        62
    16.8000        52
    16.8200        52
    16.8400        56
    16.8600        62
    16.8800        64
    16.9000        70
    16.9200        70
    16.9400        66
    16.9600        46
    16.9800        62
    17.0000        66
    17.0200        70
    17.0400        58
    17.0600        54
    17.0800        50
    17.1000        58
    17.1200        58
    17.1400        52
    17.1600        60
    17.1800        64
    17.2000        74
    17.2200        64
    17.2400        66
    17.2600        60
    17.2800        58
    17.3000        56
    17.3200        76
    17.3400        68
    17.3600        62
    17.3800        72
    17.4000        82
    17.4200        48
    17.4400        66
    17.4600        60
    17.4800        74
    17.5000        52
    17.5200        76
    17.5400        58
    17.5600        60
    17.5800        70
    17.6000        60
    17.6200        60
    17.6400        58
    17.6600        52
    17.6800        58
    17.7000        62
    17.7200        60
    17.7400        72
    17.7600        52
    17.7800        60
    17.8000        58
    17.8200        58
    17.8400        64
    17.8600        66
    17.8800        50
    17.9000        58
    17.9200        52
    17.9400        56
    17.9600        46
    17.9800        54
    18.0000        52
    18.0200        64
    18.0400        54
    18.0600        50
    18.0800        56
    18.1000        58
    18.1200        60
    18.1400        54
    18.1600        62
    18.1800        46
    18.2000        54
    18.2200        66
    18.2400        58
    18.2600        72
    18.2800        54
    18.3000        68
    18.3200        56
    18.3400        48
    18.3600        66
    18.3800        62
    18.4000        60
    18.4200        58
    18.4400        76
    18.4600        72
    18.4800        62
    18.5000        64
    18.5200        72
    18.5400        72
    18.5600        72
    18.5800        84
    18.6000        60
    18.6200        62
    18.6400        56
    18.6600        56
    18.6800        56
    18.7000        56
    18.7200        82
    18.7400        66
    18.7600        60
    18.7800        66
    18.8000        60
    18.8200        64
    18.8400        56
    18.8600        66
    18.8800        56
    18.9000        60
    18.9200        60
    18.9400        56
    18.9600        54
    18.9800        62
    19.0000        66
    19.0200        54
    19.0400        64
    19.0600        68
    19.0800        54
    19.1000        54
    19.1200        66
    19.1400        66
    19.1600        60
    19.1800        72
    19.2000        54
    19.2200        60
    19.2400        64
    19.2600        48
    19.2800        48
    19.3000        50
    19.3200        64
    19.3400        68
    19.3600        70
    19.3800        60
    19.4000        52
    19.4200        58
    19.4400        64
    19.4600        58
    19.4800        58
    19.5000        52
    19.5200        64
    19.5400        60
    19.5600        46
    19.5800        62
    19.6000        64
    19.6200        52
    19.6400        60
    19.6600        76
    19.6800        56
    19.7000        58
    19.7200        52
    19.7400        46
    19.7600        60
    19.7800        40
    19.8000        60
    19.8200        48
    19.8400        54
    19.8600        64
    19.8800        54
    19.9000        62
    19.9200        72
    19.9400        50
    19.9600        72
    19.9800        58
    20.0000        56
    20.0200        64
    20.0400        48
    20.0600        60
    20.0800        58
    20.1000        58
    20.1200        70
    20.1400        52
    20.1600        58
    20.1800        60
    20.2000        48
    20.2200        54
    20.2400        72
    20.2600        64
    20.2800        62
    20.3000        70
    20.3200        62
    20.3400        68
    20.3600        62
    20.3800        52
    20.4000        50
    20.4200        72
    20.4400        50
    20.4600        56
    20.4800        60
    20.5000        60
    20.5200        54
    20.5400        70
    20.5600        82
    20.5800        66
    20.6000        60
    20.6200        76
    20.6400        58
    20.6600        60
    20.6800        62
    20.7000        68
    20.7200        84
    20.7400        68
    20.7600        76
    20.7800        60
    20.8000        80
    20.8200        76
    20.8400        70
    20.8600        70
    20.8800        72
    20.9000        78
    20.9200        84
    20.9400        92
    20.9600        88
    20.9800        96
    21.0000        80
    21.0200        78
    21.0400        82
    21.0600        62
    21.0800        62
    21.1000        74
    21.1200        64
    21.1400        72
    21.1600        70
    21.1800        58
    21.2000        72
    21.2200        56
    21.2400        64
    21.2600        50
    21.2800        60
    21.3000        68
    21.3200        54
    21.3400        56
    21.3600        60
    21.3800        58
    21.4000        50
    21.4200        50
    21.4400        72
    21.4600        68
    21.4800        50
    21.5000        54
    21.5200        60
    21.5400        76
    21.5600        54
    21.5800        56
    21.6000        60
    21.6200        62
    21.6400        50
    21.6600        54
    21.6800        52
    21.7000        52
    21.7200        50
    21.7400        50
    21.7600        50
    21.7800        52
    21.8000        54
    21.8200        48
    21.8400        64
    21.8600        56
    21.8800        70
    21.9000        66
    21.9200        60
    21.9400        52
    21.9600        66
    21.9800        56
    22.0000        62
    22.0200        56
    22.0400        56
    22.0600        50
    22.0800        52
    22.1000        68
    22.1200        58
    22.1400        60
    22.1600        48
    22.1800        68
    22.2000        58
    22.2200        54
    22.2400        58
    22.2600        52
    22.2800        56
    22.3000        58
    22.3200        48
    22.3400        68
    22.3600        36
    22.3800        40
    22.4000        58
    22.4200        58
    22.4400        54
    22.4600        58
    22.4800        54
    22.5000        44
    22.5200        54
    22.5400        40
    22.5600        50
    22.5800        52
    22.6000        56
    22.6200        50
    22.6400        56
    22.6600        52
    22.6800        64
    22.7000        50
    22.7200        66
    22.7400        54
    22.7600        52
    22.7800        50
    22.8000        50
    22.8200        48
    22.8400        46
    22.8600        46
    22.8800        52
    22.9000        46
    22.9200        50
    22.9400        50
    22.9600        50
    22.9800        42
    23.0000        58
    23.0200        56
    23.0400        54
    23.0600        48
    23.0800        48
    23.1000        48
    23.1200        40
    23.1400        52
    23.1600        58
    23.1800        46
    23.2000        58
    23.2200        54
    23.2400        54
    23.2600        52
    23.2800        60
    23.3000        56
    23.3200        64
    23.3400        60
    23.3600        74
    23.3800        50
    23.4000        60
    23.4200        64
    23.4400        66
    23.4600        56
    23.4800        56
    23.5000        46
    23.5200        48
    23.5400        50
    23.5600        54
    23.5800        52
    23.6000        62
    23.6200        52
    23.6400        46
    23.6600        30
    23.6800        52
    23.7000        48
    23.7200        42
    23.7400        62
    23.7600        44
    23.7800        60
    23.8000        46
    23.8200        58
    23.8400        48
    23.8600        58
    23.8800        46
    23.9000        66
    23.9200        58
    23.9400        44
    23.9600        66
    23.9800        56
    24.0000        54
    24.0200        46
    24.0400        54
    24.0600        48
    24.0800        62
    24.1000        60
    24.1200        60
    24.1400        58
    24.1600        54
    24.1800        78
    24.2000        48
    24.2200        70
    24.2400        54
    24.2600        38
    24.2800        40
    24.3000        38
    24.3200        40
    24.3400        44
    24.3600        30
    24.3800        46
    24.4000        56
    24.4200        40
    24.4400        38
    24.4600        38
    24.4800        48
    24.5000        50
    24.5200        44
    24.5400        32
    24.5600        42
    24.5800        52
    24.6000        42
    24.6200        46
    24.6400        60
    24.6600        68
    24.6800        60
    24.7000        48
    24.7200        36
    24.7400        46
    24.7600        68
    24.7800        34
    24.8000        60
    24.8200        58
    24.8400        44
    24.8600        42
    24.8800        58
    24.9000        70
    24.9200        48
    24.9400        70
    24.9600        72
    24.9800        56
    25.0000        50
    25.0200        56
    25.0400        70
    25.0600        62
    25.0800        46
    25.1000        56
    25.1200        58
    25.1400        54
    25.1600        64
    25.1800        52
    25.2000        40
    25.2200        60
    25.2400        48
    25.2600        56
    25.2800        58
    25.3000        50
    25.3200        54
    25.3400        56
    25.3600        56
    25.3800        46
    25.4000        50
    25.4200        54
    25.4400        52
    25.4600        74
    25.4800        64
    25.5000        50
    25.5200        60
    25.5400        62
    25.5600        58
    25.5800        68
    25.6000        60
    25.6200        62
    25.6400        60
    25.6600        66
    25.6800        70
    25.7000        64
    25.7200        68
    25.7400        70
    25.7600        66
    25.7800        78
    25.8000        76
    25.8200        76
    25.8400        86
    25.8600       108
    25.8800       110
    25.9000       128
    25.9200       128
    25.9400       156
    25.9600       166
    25.9800       210
    26.0000       276
    26.0200       306
    26.0400       352
    26.0600       388
    26.0800       424
    26.1000       476
    26.1200       530
    26.1400       474
    26.1600       406
    26.1800       410
    26.2000       314
    26.2200       230
    26.2400       186
    26.2600       138
    26.2800       128
    26.3000       122
    26.3200       116
    26.3400       102
    26.3600       108
    26.3800       148
    26.4000       148
    26.4200       126
    26.4400       120
    26.4600       124
    26.4800        92
    26.5000        94
    26.5200       100
    26.5400       106
    26.5600       106
    26.5800        90
    26.6000        76
    26.6200        72
    26.6400        72
    26.6600        54
    26.6800        70
    26.7000        62
    26.7200        52
    26.7400        66
    26.7600        64
    26.7800        84
    26.8000        70
    26.8200        66
    26.8400        90
    26.8600        80
    26.8800       100
    26.9000        78
    26.9200       102
    26.9400       120
    26.9600       114
    26.9800       144
    27.0000       146
    27.0200       190
    27.0400       236
    27.0600       248
    27.0800       272
    27.1000       284
    27.1200       268
    27.1400       282
    27.1600       240
    27.1800       194
    27.2000       162
    27.2200       134
    27.2400       118
    27.2600       102
    27.2800        88
    27.3000        74
    27.3200        56
    27.3400        68
    27.3600        74
    27.3800        66
    27.4000        58
    27.4200        42
    27.4400        70
    27.4600        68
    27.4800        60
    27.5000        58
    27.5200        54
    27.5400        56
    27.5600        44
    27.5800        54
    27.6000        44
    27.6200        54
    27.6400        50
    27.6600        60
    27.6800        60
    27.7000        82
    27.7200        58
    27.7400        74
    27.7600        92
    27.7800       108
    27.8000       116
    27.8200        96
    27.8400       122
    27.8600       118
    27.8800        94
    27.9000       100
    27.9200        96
    27.9400        66
    27.9600        76
    27.9800        52
    28.0000        50
    28.0200        56
    28.0400        42
    28.0600        66
    28.0800        50
    28.1000        46
    28.1200        56
    28.1400        30
    28.1600        50
    28.1800        48
    28.2000        44
    28.2200        40
    28.2400        42
    28.2600        46
    28.2800        34
    28.3000        42
    28.3200        34
    28.3400        44
    28.3600        64
    28.3800        56
    28.4000        48
    28.4200        56
    28.4400        42
    28.4600        50
    28.4800        70
    28.5000        50
    28.5200        52
    28.5400        36
    28.5600        38
    28.5800        54
    28.6000        46
    28.6200        48
    28.6400        50
    28.6600        56
    28.6800        40
    28.7000        52
    28.7200        40
    28.7400        42
    28.7600        46
    28.7800        36
    28.8000        56
    28.8200        48
    28.8400        48
    28.8600        50
    28.8800        54
    28.9000        46
    28.9200        48
    28.9400        40
    28.9600        54
    28.9800        48
    29.0000        62
    29.0200        52
    29.0400        44
    29.0600        50
    29.0800        58
    29.1000        60
    29.1200        50
    29.1400        28
    29.1600        54
    29.1800        56
    29.2000        52
    29.2200        54
    29.2400        48
    29.2600        48
    29.2800        58
    29.3000        46
    29.3200        62
    29.3400        64
    29.3600        50
    29.3800        66
    29.4000        74
    29.4200        56
    29.4400        48
    29.4600        42
    29.4800        56
    29.5000        42
    29.5200        50
    29.5400        40
    29.5600        42
    29.5800        54
    29.6000        36
    29.6200        40
    29.6400        50
    29.6600        42
    29.6800        42
    29.7000        44
    29.7200        44
    29.7400        38
    29.7600        48
    29.7800        44
    29.8000        34
    29.8200        38
    29.8400        52
    29.8600        60
    29.8800        58
    29.9000        40
    29.9200        40
    29.9400        48
    29.9600        46
    29.9800        44
    30.0000        48
    30.0200        54
    30.0400        40
    30.0600        32
    30.0800        42
    30.1000        48
    30.1200        48
    30.1400        50
    30.1600        56
    30.1800        50
    30.2000        38
    30.2200        46
    30.2400        52
    30.2600        28
    30.2800        38
    30.3000        40
    30.3200        52
    30.3400        48
    30.3600        60
    30.3800        48
    30.4000        64
    30.4200        50
    30.4400        34
    30.4600        52
    30.4800        34
    30.5000        56
    30.5200        46
    30.5400        54
    30.5600        52
    30.5800        64
    30.6000        52
    30.6200        64
    30.6400        56
    30.6600        48
    30.6800        62
    30.7000        62
    30.7200        44
    30.7400        62
    30.7600        62
    30.7800        66
    30.8000        44
    30.8200        52
    30.8400        48
    30.8600        54
    30.8800        48
    30.9000        58
    30.9200        58
    30.9400        52
    30.9600        74
    30.9800        62
    31.0000        56
    31.0200        46
    31.0400        68
    31.0600        58
    31.0800        52
    31.1000        52
    31.1200        44
    31.1400        44
    31.1600        40
    31.1800        44
    31.2000        40
    31.2200        56
    31.2400        50
    31.2600        40
    31.2800        40
    31.3000        40
    31.3200        34
    31.3400        44
    31.3600        44
    31.3800        46
    31.4000        46
    31.4200        42
    31.4400        52
    31.4600        40
    31.4800        52
    31.5000        48
    31.5200        56
    31.5400        42
    31.5600        46
    31.5800        34
    31.6000        34
    31.6200        40
    31.6400        40
    31.6600        44
    31.6800        46
    31.7000        46
    31.7200        44
    31.7400        46
    31.7600        40
    31.7800        46
    31.8000        50
    31.8200        38
    31.8400        54
    31.8600        50
    31.8800        26
    31.9000        48
    31.9200        38
    31.9400        32
    31.9600        38
    31.9800        44
    32.0000        36
    32.0200        28
    32.0400        56
    32.0600        42
    32.0800        38
    32.1000        60
    32.1200        58
    32.1400        50
    32.1600        44
    32.1800        46
    32.2000        46
    32.2200        52
    32.2400        40
    32.2600        38
    32.2800        48
    32.3000        36
    32.3200        52
    32.3400        56
    32.3600        38
    32.3800        50
    32.4000        58
    32.4200        56
    32.4400        46
    32.4600        60
    32.4800        48
    32.5000        64
    32.5200        66
    32.5400        86
    32.5600        62
    32.5800        98
    32.6000        88
    32.6200        80
    32.6400        96
    32.6600        90
    32.6800        78
    32.7000       112
    32.7200        94
    32.7400        84
    32.7600        76
    32.7800        94
    32.8000        80
    32.8200       112
    32.8400       134
    32.8600       134
    32.8800       166
    32.9000       168
    32.9200       210
    32.9400       228
    32.9600       228
    32.9800       266
    33.0000       264
    33.0200       266
    33.0400       272
    33.0600       234
    33.0800       184
    33.1000       184
    33.1200       152
    33.1400       120
    33.1600       102
    33.1800       114
    33.2000        98
    33.2200        72
    33.2400        54
    33.2600        60
    33.2800        58
    33.3000        58
    33.3200        70
    33.3400        64
    33.3600        58
    33.3800        58
    33.4000        72
    33.4200        58
    33.4400        54
    33.4600        62
    33.4800        46
    33.5000        44
    33.5200        32
    33.5400        66
    33.5600        46
    33.5800        50
    33.6000        40
    33.6200        50
    33.6400        44
    33.6600        46
    33.6800        44
    33.7000        56
    33.7200        60
    33.7400        48
    33.7600        62
    33.7800        52
    33.8000        52
    33.8200        66
    33.8400        56
    33.8600        52
    33.8800        52
    33.9000        58
    33.9200        56
    33.9400        42
    33.9600        62
    33.9800        68
    34.0000        60
    34.0200        48
    34.0400        62
    34.0600        42
    34.0800        50
    34.1000        46
    34.1200        58
    34.1400        50
    34.1600        50
    34.1800        52
    34.2000        54
    34.2200        56
    34.2400        60
    34.2600        62
    34.2800        62
    34.3000        44
    34.3200        50
    34.3400        54
    34.3600        62
    34.3800        50
    34.4000        56
    34.4200        58
    34.4400        44
    34.4600        58
    34.4800        58
    34.5000        42
    34.5200        52
    34.5400        52
    34.5600        54
    34.5800        66
    34.6000        60
    34.6200        68
    34.6400        44
    34.6600        60
    34.6800        46
    34.7000        52
    34.7200        48
    34.7400        72
    34.7600        40
    34.7800        48
    34.8000        48
    34.8200        66
    34.8400        46
    34.8600        50
    34.8800        62
    34.9000        56
    34.9200        72
    34.9400        68
    34.9600        58
    34.9800        60
    35.0000        52
    35.0200        50
    35.0400        50
    35.0600        68
    35.0800        52
    35.1000        62
    35.1200        60
    35.1400        44
    35.1600        44
    35.1800        58
    35.2000        44
    35.2200        56
    35.2400        56
    35.2600        46
    35.2800        56
    35.3000        60
    35.3200        68
    35.3400        50
    35.3600        56
    35.3800        48
    35.4000        48
    35.4200        62
    35.4400        48
    35.4600        54
    35.4800        48
    35.5000        68
    35.5200        64
    35.5400        84
    35.5600        68
    35.5800        50
    35.6000        70
    35.6200        90
    35.6400        80
    35.6600        72
    35.6800        66
    35.7000        76
    35.7200        80
    35.7400        76
    35.7600        80
    35.7800        78
    35.8000        86
    35.8200       108
    35.8400       102
    35.8600        92
    35.8800       142
    35.9000       152
    35.9200       162
    35.9400       184
    35.9600       224
    35.9800       242
    36.0000       284
    36.0200       300
    36.0400       358
    36.0600       340
    36.0800       376
    36.1000       370
    36.1200       340
    36.1400       314
    36.1600       212
    36.1800       226
    36.2000       222
    36.2200       160
    36.2400       148
    36.2600       114
    36.2800        98
    36.3000        68
    36.3200        84
    36.3400        98
    36.3600        84
    36.3800        86
    36.4000        94
    36.4200        88
    36.4400        62
    36.4600        78
    36.4800        82
    36.5000        92
    36.5200        96
    36.5400        78
    36.5600        74
    36.5800        74
    36.6000        66
    36.6200        68
    36.6400        78
    36.6600        62
    36.6800        70
    36.7000        70
    36.7200        66
    36.7400        70
    36.7600        70
    36.7800        80
    36.8000        72
    36.8200        80
    36.8400        76
    36.8600        86
    36.8800        86
    36.9000        78
    36.9200        96
    36.9400        86
    36.9600        96
    36.9800       108
    37.0000        96
    37.0200       102
    37.0400       108
    37.0600       114
    37.0800       106
    37.1000       112
    37.1200       138
    37.1400       134
    37.1600       120
    37.1800       128
    37.2000       124
    37.2200       128
    37.2400       122
    37.2600       102
    37.2800        94
    37.3000        96
    37.3200        86
    37.3400        64
    37.3600        68
    37.3800        82
    37.4000        56
    37.4200        60
    37.4400        64
    37.4600        46
    37.4800        74
    37.5000        74
    37.5200        58
    37.5400        74
    37.5600        78
    37.5800        70
    37.6000        84
    37.6200        96
    37.6400        94
    37.6600       112
    37.6800       114
    37.7000       156
    37.7200       160
    37.7400       156
    37.7600       188
    37.7800       204
    37.8000       178
    37.8200       184
    37.8400       150
    37.8600       138
    37.8800       120
    37.9000       136
    37.9200       106
    37.9400       104
    37.9600        86
    37.9800        92
    38.0000        88
    38.0200        76
    38.0400        76
    38.0600        68
    38.0800       100
    38.1000        84
    38.1200       108
    38.1400       144
    38.1600       162
    38.1800       162
    38.2000       222
    38.2200       230
    38.2400       286
    38.2600       318
    38.2800       352
    38.3000       380
    38.3200       368
    38.3400       418
    38.3600       304
    38.3800       292
    38.4000       252
    38.4200       250
    38.4400       228
    38.4600       200
    38.4800       168
    38.5000       140
    38.5200       154
    38.5400       128
    38.5600       128
    38.5800       100
    38.6000       104
    38.6200       102
    38.6400        96
    38.6600        70
    38.6800        52
    38.7000        62
    38.7200        62
    38.7400        54
    38.7600        56
    38.7800        48
    38.8000        46
    38.8200        38
    38.8400        46
    38.8600        48
    38.8800        34
    38.9000        36
    38.9200        40
    38.9400        50
    38.9600        34
    38.9800        32
    39.0000        44
    39.0200        38
    39.0400        44
    39.0600        56
    39.0800        40
    39.1000        42
    39.1200        40
    39.1400        44
    39.1600        36
    39.1800        50
    39.2000        40
    39.2200        40
    39.2400        38
    39.2600        48
    39.2800        42
    39.3000        42
    39.3200        46
    39.3400        42
    39.3600        48
    39.3800        44
    39.4000        40
    39.4200        48
    39.4400        38
    39.4600        44
    39.4800        42
    39.5000        44
    39.5200        52
    39.5400        46
    39.5600        36
    39.5800        42
    39.6000        44
    39.6200        42
    39.6400        36
    39.6600        44
    39.6800        34
    39.7000        56
    39.7200        48
    39.7400        34
    39.7600        44
    39.7800        50
    39.8000        40
    39.8200        44
    39.8400        40
    39.8600        34
    39.8800        40
    39.9000        52
    39.9200        50
    39.9400        48
    39.9600        40
    39.9800        50
    40.0000        44
    40.0200        50
    40.0400        28
    40.0600        50
    40.0800        38
    40.1000        32
    40.1200        34
    40.1400        40
    40.1600        38
    40.1800        36
    40.2000        44
    40.2200        44
    40.2400        42
    40.2600        42
    40.2800        30
    40.3000        38
    40.3200        34
    40.3400        46
    40.3600        42
    40.3800        42
    40.4000        56
    40.4200        42
    40.4400        50
    40.4600        42
    40.4800        38
    40.5000        32
    40.5200        40
    40.5400        54
    40.5600        42
    40.5800        44
    40.6000        58
    40.6200        64
    40.6400        62
    40.6600        64
    40.6800        72
    40.7000        54
    40.7200        80
    40.7400        56
    40.7600        66
    40.7800        66
    40.8000        64
    40.8200        78
    40.8400        76
    40.8600        64
    40.8800        68
    40.9000        64
    40.9200        64
    40.9400        72
    40.9600        66
    40.9800        96
    41.0000        94
    41.0200        98
    41.0400        96
    41.0600       124
    41.0800       132
    41.1000       116
    41.1200       124
    41.1400       102
    41.1600       108
    41.1800       100
    41.2000        84
    41.2200        88
    41.2400        64
    41.2600        64
    41.2800        64
    41.3000        54
    41.3200        62
    41.3400        46
    41.3600        56
    41.3800        42
    41.4000        42
    41.4200        52
    41.4400        50
    41.4600        50
    41.4800        42
    41.5000        52
    41.5200        38
    41.5400        44
    41.5600        40
    41.5800        44
    41.6000        48
    41.6200        40
    41.6400        38
    41.6600        34
    41.6800        38
    41.7000        44
    41.7200        30
    41.7400        50
    41.7600        50
    41.7800        44
    41.8000        36
    41.8200        34
    41.8400        40
    41.8600        38
    41.8800        32
    41.9000        42
    41.9200        42
    41.9400        44
    41.9600        46
    41.9800        40
    42.0000        36
    42.0200        42
    42.0400        36
    42.0600        46
    42.0800        34
    42.1000        24
    42.1200        44
    42.1400        32
    42.1600        44
    42.1800        36
    42.2000        36
    42.2200        36
    42.2400        46
    42.2600        44
    42.2800        44
    42.3000        36
    42.3200        40
    42.3400        38
    42.3600        50
    42.3800        44
    42.4000        58
    42.4200        56
    42.4400        48
    42.4600        42
    42.4800        58
    42.5000        52
    42.5200        64
    42.5400        60
    42.5600        58
    42.5800        72
    42.6000        78
    42.6200        90
    42.6400       106
    42.6600       118
    42.6800       148
    42.7000       204
    42.7200       240
    42.7400       266
    42.7600       364
    42.7800       378
    42.8000       376
    42.8200       392
    42.8400       372
    42.8600       360
    42.8800       318
    42.9000       274
    42.9200       262
    42.9400       224
    42.9600       180
    42.9800       148
    43.0000       110
    43.0200        94
    43.0400        60
    43.0600        76
    43.0800        64
    43.1000        56
    43.1200        62
    43.1400        52
    43.1600        52
    43.1800        52
    43.2000        42
    43.2200        42
    43.2400        66
    43.2600        40
    43.2800        40
    43.3000        48
    43.3200        42
    43.3400        44
    43.3600        40
    43.3800        46
    43.4000        52
    43.4200        54
    43.4400        50
    43.4600        48
    43.4800        34
    43.5000        48
    43.5200        50
    43.5400        38
    43.5600        46
    43.5800        38
    43.6000        34
    43.6200        36
    43.6400        46
    43.6600        56
    43.6800        44
    43.7000        34
    43.7200        32
    43.7400        36
    43.7600        42
    43.7800        38
    43.8000        36
    43.8200        34
    43.8400        44
    43.8600        50
    43.8800        26
    43.9000        34
    43.9200        36
    43.9400        36
    43.9600        34
    43.9800        36
    44.0000        36
    44.0200        22
    44.0400        36
    44.0600        42
    44.0800        36
    44.1000        46
    44.1200        32
    44.1400        36
    44.1600        40
    44.1800        52
    44.2000        30
    44.2200        36
    44.2400        42
    44.2600        28
    44.2800        44
    44.3000        46
    44.3200        42
    44.3400        40
    44.3600        24
    44.3800        34
    44.4000        34
    44.4200        28
    44.4400        40
    44.4600        48
    44.4800        50
    44.5000        30
    44.5200        36
    44.5400        38
    44.5600        38
    44.5800        40
    44.6000        42
    44.6200        42
    44.6400        32
    44.6600        52
    44.6800        34
    44.7000        46
    44.7200        32
    44.7400        38
    44.7600        44
    44.7800        32
    44.8000        44
    44.8200        34
    44.8400        42
    44.8600        34
    44.8800        40
    44.9000        36
    44.9200        42
    44.9400        36
    44.9600        52
    44.9800        44
    45.0000        48
    45.0200        40
    45.0400        32
    45.0600        46
    45.0800        38
    45.1000        46
    45.1200        42
    45.1400        56
    45.1600        56
    45.1800        38
    45.2000        50
    45.2200        64
    45.2400        54
    45.2600        54
    45.2800        52
    45.3000        62
    45.3200        64
    45.3400        70
    45.3600        82
    45.3800        82
    45.4000        94
    45.4200        96
    45.4400       100
    45.4600       100
    45.4800       110
    45.5000        94
    45.5200       112
    45.5400       112
    45.5600       138
    45.5800       130
    45.6000       190
    45.6200       192
    45.6400       220
    45.6600       316
    45.6800       376
    45.7000       452
    45.7200       466
    45.7400       554
    45.7600       546
    45.7800       570
    45.8000       498
    45.8200       438
    45.8400       390
    45.8600       362
    45.8800       324
    45.9000       298
    45.9200       234
    45.9400       188
    45.9600       160
    45.9800       104
    46.0000        86
    46.0200        76
    46.0400        98
    46.0600        74
    46.0800        62
    46.1000        74
    46.1200        48
    46.1400        50
    46.1600        54
    46.1800        48
    46.2000        52
    46.2200        34
    46.2400        38
    46.2600        42
    46.2800        42
    46.3000        44
    46.3200        38
    46.3400        42
    46.3600        50
    46.3800        42
    46.4000        38
    46.4200        36
    46.4400        40
    46.4600        26
    46.4800        44
    46.5000        42
    46.5200        46
    46.5400        36
    46.5600        44
    46.5800        44
    46.6000        36
    46.6200        44
    46.6400        30
    46.6600        38
    46.6800        50
    46.7000        44
    46.7200        40
    46.7400        44
    46.7600        44
    46.7800        44
    46.8000        30
    46.8200        30
    46.8400        38
    46.8600        36
    46.8800        34
    46.9000        42
    46.9200        38
    46.9400        26
    46.9600        42
    46.9800        42
    47.0000        42
    47.0200        32
    47.0400        32
    47.0600        44
    47.0800        38
    47.1000        40
    47.1200        38
    47.1400        32
    47.1600        56
    47.1800        30
    47.2000        42
    47.2200        38
    47.2400        42
    47.2600        46
    47.2800        50
    47.3000        48
    47.3200        54
    47.3400        54
    47.3600        46
    47.3800        42
    47.4000        44
    47.4200        52
    47.4400        48
    47.4600        46
    47.4800        44
    47.5000        42
    47.5200        30
    47.5400        54
    47.5600        52
    47.5800        36
    47.6000        38
    47.6200        24
    47.6400        38
    47.6600        42
    47.6800        50
    47.7000        40
    47.7200        42
    47.7400        32
    47.7600        46
    47.7800        52
    47.8000        40
    47.8200        26
    47.8400        38
    47.8600        50
    47.8800        48
    47.9000        58
    47.9200        60
    47.9400        70
    47.9600        50
    47.9800        66
    48.0000        70
    48.0200        86
    48.0400        78
    48.0600        96
    48.0800       124
    48.1000       114
    48.1200       142
    48.1400       180
    48.1600       168
    48.1800       218
    48.2000       226
    48.2200       242
    48.2400       234
    48.2600       236
    48.2800       220
    48.3000       212
    48.3200       214
    48.3400       214
    48.3600       202
    48.3800       172
    48.4000       154
    48.4200       148
    48.4400       128
    48.4600       108
    48.4800       110
    48.5000        96
    48.5200        94
    48.5400        70
    48.5600        72
    48.5800        78
    48.6000        60
    48.6200        58
    48.6400        44
    48.6600        56
    48.6800        52
    48.7000        40
    48.7200        44
    48.7400        58
    48.7600        36
    48.7800        36
    48.8000        38
    48.8200        40
    48.8400        30
    48.8600        34
    48.8800        46
    48.9000        46
    48.9200        42
    48.9400        36
    48.9600        40
    48.9800        38
    49.0000        46
    49.0200        36
    49.0400        46
    49.0600        36
    49.0800        38
    49.1000        44
    49.1200        34
    49.1400        46
    49.1600        46
    49.1800        30
    49.2000        38
    49.2200        34
    49.2400        38
    49.2600        30
    49.2800        34
    49.3000        44
    49.3200        50
    49.3400        30
    49.3600        42
    49.3800        32
    49.4000        38
    49.4200        30
    49.4400        34
    49.4600        40
    49.4800        38
    49.5000        40
    49.5200        44
    49.5400        38
    49.5600        40
    49.5800        34
    49.6000        56
    49.6200        32
    49.6400        46
    49.6600        54
    49.6800        44
    49.7000        40
    49.7200        42
    49.7400        56
    49.7600        46
    49.7800        64
    49.8000        42
    49.8200        50
    49.8400        50
    49.8600        40
    49.8800        48
    49.9000        48
    49.9200        62
    49.9400        68
    49.9600        64
    49.9800        66
    50.0000        78
    50.0200       104
    50.0400       108
    50.0600       120
    50.0800       140
    50.1000       160
    50.1200       134
    50.1400       122
    50.1600       130
    50.1800       128
    50.2000       104
    50.2200       106
    50.2400       112
    50.2600       114
    50.2800       102
    50.3000        72
    50.3200        80
    50.3400        62
    50.3600        54
    50.3800        42
    50.4000        34
    50.4200        36
    50.4400        34
    50.4600        42
    50.4800        34
    50.5000        34
    50.5200        48
    50.5400        38
    50.5600        42
    50.5800        36
    50.6000        34
    50.6200        30
    50.6400        38
    50.6600        30
    50.6800        30
    50.7000        42
    50.7200        36
    50.7400        30
    50.7600        38
    50.7800        34
    50.8000        36
    50.8200        34
    50.8400        30
    50.8600        36
    50.8800        34
    50.9000        28
    50.9200        42
    50.9400        30
    50.9600        34
    50.9800        34
    51.0000        48
    51.0200        40
    51.0400        42
    51.0600        44
    51.0800        36
    51.1000        30
    51.1200        40
    51.1400        38
    51.1600        34
    51.1800        38
    51.2000        20
    51.2200        36
    51.2400        30
    51.2600        42
    51.2800        28
    51.3000        36
    51.3200        32
    51.3400        38
    51.3600        34
    51.3800        22
    51.4000        40
    51.4200        40
    51.4400        32
    51.4600        34
    51.4800        42
    51.5000        40
    51.5200        36
    51.5400        38
    51.5600        34
    51.5800        40
    51.6000        38
    51.6200        28
    51.6400        40
    51.6600        40
    51.6800        26
    51.7000        42
    51.7200        32
    51.7400        60
    51.7600        50
    51.7800        46
    51.8000        52
    51.8200        56
    51.8400        48
    51.8600        64
    51.8800        56
    51.9000        60
    51.9200        42
    51.9400        60
    51.9600        42
    51.9800        38
    52.0000        48
    52.0200        46
    52.0400        46
    52.0600        78
    52.0800        50
    52.1000        50
    52.1200        42
    52.1400        68
    52.1600        44
    52.1800        62
    52.2000        66
    52.2200        80
    52.2400        60
    52.2600        90
    52.2800        84
    52.3000       130
    52.3200       116
    52.3400       134
    52.3600       100
    52.3800       126
    52.4000       112
    52.4200       102
    52.4400        84
    52.4600       100
    52.4800        96
    52.5000        78
    52.5200        74
    52.5400        88
    52.5600        76
    52.5800        78
    52.6000        68
    52.6200        62
    52.6400        66
    52.6600        62
    52.6800        58
    52.7000        76
    52.7200        82
    52.7400        98
    52.7600        86
    52.7800       102
    52.8000       118
    52.8200       116
    52.8400       112
    52.8600       132
    52.8800       108
    52.9000       128
    52.9200       116
    52.9400       106
    52.9600       102
    52.9800        92
    53.0000        90
    53.0200        84
    53.0400        82
    53.0600        54
    53.0800        82
    53.1000        72
    53.1200        44
    53.1400        40
    53.1600        42
    53.1800        56
    53.2000        50
    53.2200        38
    53.2400        42
    53.2600        44
    53.2800        50
    53.3000        36
    53.3200        44
    53.3400        50
    53.3600        38
    53.3800        54
    53.4000        46
    53.4200        42
    53.4400        34
    53.4600        52
    53.4800        42
    53.5000        36
    53.5200        44
    53.5400        48
    53.5600        38
    53.5800        52
    53.6000        38
    53.6200        52
    53.6400        40
    53.6600        44
    53.6800        42
    53.7000        50
    53.7200        62
    53.7400        34
    53.7600        42
    53.7800        54
    53.8000        54
    53.8200        38
    53.8400        44
    53.8600        44
    53.8800        54
    53.9000        68
    53.9200        36
    53.9400        50
    53.9600        42
    53.9800        40
    54.0000        42
    54.0200        32
    54.0400        30
    54.0600        46
    54.0800        44
    54.1000        30
    54.1200        30
    54.1400        44
    54.1600        36
    54.1800        38
    54.2000        42
    54.2200        40
    54.2400        40
    54.2600        40
    54.2800        36
    54.3000        40
    54.3200        34
    54.3400        32
    54.3600        28
    54.3800        36
    54.4000        34
    54.4200        40
    54.4400        42
    54.4600        28
    54.4800        30
    54.5000        30
    54.5200        34
    54.5400        42
    54.5600        36
    54.5800        42
    54.6000        38
    54.6200        30
    54.6400        30
    54.6600        44
    54.6800        36
    54.7000        46
    54.7200        36
    54.7400        32
    54.7600        42
    54.7800        34
    54.8000        46
    54.8200        30
    54.8400        40
    54.8600        40
    54.8800        50
    54.9000        36
    54.9200        32
    54.9400        40
    54.9600        42
    54.9800        36
    55.0000        30
    55.0200        36
    55.0400        32
    55.0600        26
    55.0800        32
    55.1000        26
    55.1200        42
    55.1400        28
    55.1600        34
    55.1800        42
    55.2000        22
    55.2200        28
    55.2400        38
    55.2600        42
    55.2800        40
    55.3000        38
    55.3200        32
    55.3400        34
    55.3600        28
    55.3800        28
    55.4000        26
    55.4200        42
    55.4400        26
    55.4600        38
    55.4800        42
    55.5000        44
    55.5200        34
    55.5400        36
    55.5600        44
    55.5800        32
    55.6000        42
    55.6200        30
    55.6400        22
    55.6600        38
    55.6800        34
    55.7000        36
    55.7200        40
    55.7400        34
    55.7600        32
    55.7800        40
    55.8000        26
    55.8200        22
    55.8400        42
    55.8600        42
    55.8800        40
    55.9000        42
    55.9200        40
    55.9400        50
    55.9600        58
    55.9800        42
    56.0000        48
    56.0200        58
    56.0400        58
    56.0600        56
    56.0800        56
    56.1000        62
    56.1200        58
    56.1400        64
    56.1600        84
    56.1800        62
    56.2000        72
    56.2200        68
    56.2400        70
    56.2600        62
    56.2800        62
    56.3000        70
    56.3200        78
    56.3400        58
    56.3600        56
    56.3800        50
    56.4000        48
    56.4200        36
    56.4400        40
    56.4600        32
    56.4800        52
    56.5000        50
    56.5200        56
    56.5400        24
    56.5600        36
    56.5800        50
    56.6000        42
    56.6200        50
    56.6400        46
    56.6600        58
    56.6800        60
    56.7000        54
    56.7200        68
    56.7400        52
    56.7600        40
    56.7800        44
    56.8000        56
    56.8200        48
    56.8400        42
    56.8600        36
    56.8800        40
    56.9000        32
    56.9200        36
    56.9400        38
    56.9600        40
    56.9800        30
    57.0000        38
    57.0200        40
    57.0400        32
    57.0600        30
    57.0800        36
    57.1000        36
    57.1200        38
    57.1400        38
    57.1600        24
    57.1800        32
    57.2000        34
    57.2200        32
    57.2400        28
    57.2600        20
    57.2800        40
    57.3000        38
    57.3200        30
    57.3400        34
    57.3600        26
    57.3800        34
    57.4000        26
    57.4200        40
    57.4400        38
    57.4600        42
    57.4800        34
    57.5000        42
    57.5200        34
    57.5400        36
    57.5600        38
    57.5800        32
    57.6000        36
    57.6200        36
    57.6400        38
    57.6600        46
    57.6800        54
    57.7000        58
    57.7200        40
    57.7400        42
    57.7600        34
    57.7800        42
    57.8000        42
    57.8200        50
    57.8400        48
    57.8600        42
    57.8800        44
    57.9000        32
    57.9200        26
    57.9400        38
    57.9600        36
    57.9800        28
    58.0000        46
    58.0200        36
    58.0400        34
    58.0600        40
    58.0800        22
    58.1000        30
    58.1200        34
    58.1400        32
    58.1600        26
    58.1800        42
    58.2000        28
    58.2200        26
    58.2400        26
    58.2600        32
    58.2800        46
    58.3000        32
    58.3200        28
    58.3400        34
    58.3600        38
    58.3800        34
    58.4000        30
    58.4200        32
    58.4400        50
    58.4600        36
    58.4800        26
    58.5000        40
    58.5200        36
    58.5400        42
    58.5600        30
    58.5800        58
    58.6000        42
    58.6200        44
    58.6400        34
    58.6600        36
    58.6800        38
    58.7000        44
    58.7200        36
    58.7400        32
    58.7600        26
    58.7800        42
    58.8000        42
    58.8200        32
    58.8400        36
    58.8600        54
    58.8800        50
    58.9000        44
    58.9200        44
    58.9400        46
    58.9600        44
    58.9800        54
    59.0000        62
    59.0200        66
    59.0400        74
    59.0600        70
    59.0800        76
    59.1000        88
    59.1200        86
    59.1400        84
    59.1600        84
    59.1800        74
    59.2000        72
    59.2200        68
    59.2400        86
    59.2600        74
    59.2800        84
    59.3000        76
    59.3200        72
    59.3400        74
    59.3600        68
    59.3800        72
    59.4000        62
    59.4200        46
    59.4400        68
    59.4600        66
    59.4800        56
    59.5000        58
    59.5200        54
    59.5400        56
    59.5600        42
    59.5800        46
    59.6000        40
    59.6200        42
    59.6400        36
    59.6600        36
    59.6800        46
    59.7000        42
    59.7200        36
    59.7400        34
    59.7600        52
    59.7800        28
    59.8000        52
    59.8200        36
    59.8400        40
    59.8600        40
    59.8800        38
    59.9000        46
    59.9200        34
    59.9400        34
    59.9600        42
    59.9800        54
    60.0000        44
    60.0200        52
    60.0400        56
    60.0600        54
    60.0800        52
    60.1000        56
    60.1200        48
    60.1400        62
    60.1600        64
    60.1800        38
    60.2000        46
    60.2200        58
    60.2400        42
    60.2600        42
    60.2800        50
    60.3000        42
    60.3200        46
    60.3400        38
    60.3600        42
    60.3800        42
    60.4000        46
    60.4200        40
    60.4400        32
    60.4600        50
    60.4800        28
    60.5000        24
    60.5200        36
    60.5400        46
    60.5600        46
    60.5800        40
    60.6000        42
    60.6200        20
    60.6400        32
    60.6600        42
    60.6800        24
    60.7000        24
    60.7200        40
    60.7400        30
    60.7600        42
    60.7800        46
    60.8000        38
    60.8200        38
    60.8400        38
    60.8600        28
    60.8800        34
    60.9000        34
    60.9200        30
    60.9400        28
    60.9600        32
    60.9800        34
    61.0000        38
    61.0200        34
    61.0400        42
    61.0600        36
    61.0800        36
    61.1000        42
    61.1200        34
    61.1400        54
    61.1600        28
    61.1800        32
    61.2000        48
    61.2200        40
    61.2400        40
    61.2600        44
    61.2800        34
    61.3000        44
    61.3200        36
    61.3400        32
    61.3600        44
    61.3800        48
    61.4000        46
    61.4200        40
    61.4400        40
    61.4600        42
    61.4800        48
    61.5000        50
    61.5200        62
    61.5400        64
    61.5600        58
    61.5800        52
    61.6000        62
    61.6200        50
    61.6400        82
    61.6600        56
    61.6800        80
    61.7000        78
    61.7200        76
    61.7400        48
    61.7600        86
    61.7800        56
    61.8000        70
    61.8200        80
    61.8400        66
    61.8600        58
    61.8800        70
    61.9000        60
    61.9200        46
    61.9400        52
    61.9600        40
    61.9800        44
    62.0000        46
    62.0200        36
    62.0400        38
    62.0600        34
    62.0800        34
    62.1000        46
    62.1200        38
    62.1400        32
    62.1600        34
    62.1800        48
    62.2000        46
    62.2200        30
    62.2400        40
    62.2600        24
    62.2800        32
    62.3000        36
    62.3200        42
    62.3400        38
    62.3600        32
    62.3800        38
    62.4000        34
    62.4200        44
    62.4400        40
    62.4600        38
    62.4800        26
    62.5000        30
    62.5200        36
    62.5400        44
    62.5600        36
    62.5800        42
    62.6000        36
    62.6200        38
    62.6400        46
    62.6600        36
    62.6800        42
    62.7000        46
    62.7200        52
    62.7400        48
    62.7600        62
    62.7800        62
    62.8000        64
    62.8200        56
    62.8400        66
    62.8600        56
    62.8800        46
    62.9000        56
    62.9200        38
    62.9400        48
    62.9600        58
    62.9800        60
    63.0000        56
    63.0200        46
    63.0400        54
    63.0600        50
    63.0800        42
    63.1000        44
    63.1200        48
    63.1400        60
    63.1600        70
    63.1800        76
    63.2000        68
    63.2200        66
    63.2400        72
    63.2600        82
    63.2800        72
    63.3000        68
    63.3200        70
    63.3400        64
    63.3600        50
    63.3800        68
    63.4000        58
    63.4200        56
    63.4400        38
    63.4600        46
    63.4800        50
    63.5000        34
    63.5200        44
    63.5400        42
    63.5600        46
    63.5800        32
    63.6000        44
    63.6200        44
    63.6400        50
    63.6600        36
    63.6800        40
    63.7000        36
    63.7200        42
    63.7400        38
    63.7600        44
    63.7800        44
    63.8000        34
    63.8200        30
    63.8400        34
    63.8600        34
    63.8800        36
    63.9000        36
    63.9200        32
    63.9400        34
    63.9600        34
    63.9800        34
    64.0000        40
    64.0200        24
    64.0400        34
    64.0600        42
    64.0800        32
    64.1000        40
    64.1200        34
    64.1400        48
    64.1600        36
    64.1800        46
    64.2000        30
    64.2200        48
    64.2400        42
    64.2600        40
    64.2800        30
    64.3000        38
    64.3200        40
    64.3400        46
    64.3600        40
    64.3800        34
    64.4000        38
    64.4200        40
    64.4400        42
    64.4600        22
    64.4800        40
    64.5000        28
    64.5200        32
    64.5400        50
    64.5600        34
    64.5800        28
    64.6000        36
    64.6200        22
    64.6400        42
    64.6600        28
    64.6800        38
    64.7000        44
    64.7200        32
    64.7400        22
    64.7600        30
    64.7800        44
    64.8000        28
    64.8200        22
    64.8400        30
    64.8600        32
    64.8800        42
    64.9000        34
    64.9200        40
    64.9400        36
    64.9600        32
    64.9800        32
    65.0000        28
