/////////////////////////////////////////////////////////////////////////////////
/// Profile Data Ascii Dump (XRD)                                             ///
/////////////////////////////////////////////////////////////////////////////////

  Group     : Swayze
  Data      : SCF-NHJ-B
  File Name : SCF-NHJ-B.RAW

# Profile Datafile
          comment             = AmmonioJarosite 
          date & time         = 08-04-14 06:49:38 

# Measurement Condition
    X-ray tube
          target              = Cu 
          voltage             = 40.0 (kV)
          current             = 30.0 (mA)
    Slits
          divergence slit     = 2.00000 (deg) 
          scatter slit        = 2.00000 (deg) 
          receiving slit      = 0.15000 (mm)  
    Scanning
          drive axis          = Theta-2Theta 
          scan range          =    4.000 -   65.000 
          scan mode           = Continuous Scan 
          scan speed          =   2.0000 (deg/min) 
          sampling pitch      =   0.0200 (deg) 
          preset time         =   0.60 (sec) 

# Data      [ Total No. = 3051 ]
  <2Theta>   <   I   >
     4.0000       200
     4.0200       182
     4.0400       212
     4.0600       196
     4.0800       176
     4.1000       188
     4.1200       174
     4.1400       208
     4.1600       186
     4.1800       192
     4.2000       182
     4.2200       194
     4.2400       182
     4.2600       194
     4.2800       182
     4.3000       202
     4.3200       198
     4.3400       168
     4.3600       180
     4.3800       174
     4.4000       190
     4.4200       184
     4.4400       146
     4.4600       190
     4.4800       164
     4.5000       184
     4.5200       154
     4.5400       190
     4.5600       192
     4.5800       162
     4.6000       198
     4.6200       176
     4.6400       190
     4.6600       184
     4.6800       160
     4.7000       162
     4.7200       162
     4.7400       146
     4.7600       166
     4.7800       196
     4.8000       196
     4.8200       154
     4.8400       158
     4.8600       182
     4.8800       178
     4.9000       176
     4.9200       180
     4.9400       168
     4.9600       158
     4.9800       176
     5.0000       184
     5.0200       152
     5.0400       186
     5.0600       186
     5.0800       130
     5.1000       198
     5.1200       196
     5.1400       166
     5.1600       172
     5.1800       180
     5.2000       168
     5.2200       190
     5.2400       180
     5.2600       170
     5.2800       158
     5.3000       170
     5.3200       188
     5.3400       144
     5.3600       170
     5.3800       188
     5.4000       174
     5.4200       194
     5.4400       176
     5.4600       166
     5.4800       172
     5.5000       154
     5.5200       162
     5.5400       176
     5.5600       168
     5.5800       160
     5.6000       198
     5.6200       186
     5.6400       160
     5.6600       172
     5.6800       166
     5.7000       172
     5.7200       192
     5.7400       182
     5.7600       176
     5.7800       176
     5.8000       184
     5.8200       150
     5.8400       190
     5.8600       162
     5.8800       176
     5.9000       164
     5.9200       166
     5.9400       150
     5.9600       186
     5.9800       170
     6.0000       184
     6.0200       176
     6.0400       178
     6.0600       150
     6.0800       166
     6.1000       146
     6.1200       150
     6.1400       160
     6.1600       166
     6.1800       186
     6.2000       140
     6.2200       170
     6.2400       130
     6.2600       146
     6.2800       174
     6.3000       166
     6.3200       160
     6.3400       148
     6.3600       164
     6.3800       154
     6.4000       162
     6.4200       134
     6.4400       142
     6.4600       146
     6.4800       140
     6.5000       134
     6.5200       128
     6.5400       168
     6.5600       140
     6.5800       150
     6.6000       134
     6.6200       164
     6.6400       146
     6.6600       132
     6.6800       152
     6.7000       164
     6.7200       142
     6.7400       146
     6.7600       136
     6.7800       144
     6.8000       136
     6.8200       136
     6.8400       144
     6.8600       136
     6.8800       124
     6.9000       132
     6.9200       128
     6.9400       140
     6.9600       166
     6.9800       132
     7.0000       132
     7.0200       146
     7.0400       122
     7.0600       118
     7.0800       134
     7.1000       138
     7.1200       158
     7.1400       120
     7.1600       132
     7.1800       126
     7.2000       130
     7.2200       142
     7.2400       146
     7.2600       136
     7.2800       118
     7.3000       146
     7.3200       128
     7.3400       132
     7.3600       134
     7.3800       126
     7.4000       118
     7.4200       120
     7.4400        98
     7.4600       112
     7.4800       132
     7.5000       126
     7.5200       130
     7.5400       108
     7.5600       120
     7.5800       106
     7.6000       128
     7.6200       108
     7.6400       122
     7.6600       128
     7.6800       126
     7.7000       134
     7.7200       108
     7.7400       132
     7.7600       118
     7.7800       122
     7.8000       124
     7.8200       132
     7.8400       126
     7.8600       128
     7.8800       116
     7.9000       122
     7.9200       108
     7.9400       126
     7.9600       106
     7.9800       118
     8.0000       122
     8.0200       114
     8.0400       104
     8.0600       120
     8.0800       126
     8.1000       110
     8.1200       124
     8.1400       110
     8.1600       124
     8.1800       116
     8.2000       120
     8.2200       126
     8.2400       120
     8.2600       112
     8.2800       132
     8.3000       142
     8.3200       132
     8.3400       128
     8.3600       110
     8.3800       126
     8.4000       132
     8.4200       116
     8.4400       110
     8.4600       118
     8.4800       140
     8.5000       132
     8.5200       132
     8.5400       122
     8.5600       122
     8.5800       132
     8.6000       116
     8.6200       128
     8.6400       108
     8.6600       130
     8.6800       112
     8.7000       110
     8.7200       100
     8.7400       136
     8.7600       134
     8.7800       120
     8.8000       140
     8.8200       124
     8.8400       128
     8.8600       136
     8.8800       108
     8.9000       126
     8.9200       116
     8.9400       138
     8.9600       120
     8.9800       112
     9.0000        98
     9.0200       130
     9.0400       138
     9.0600       122
     9.0800       100
     9.1000       146
     9.1200       112
     9.1400       122
     9.1600       114
     9.1800       120
     9.2000        94
     9.2200       108
     9.2400       122
     9.2600       140
     9.2800       122
     9.3000       112
     9.3200       108
     9.3400       118
     9.3600       104
     9.3800        98
     9.4000       136
     9.4200       152
     9.4400       114
     9.4600       138
     9.4800       156
     9.5000       110
     9.5200       106
     9.5400       128
     9.5600       126
     9.5800       124
     9.6000       122
     9.6200       110
     9.6400       128
     9.6600       122
     9.6800       132
     9.7000       108
     9.7200        98
     9.7400       120
     9.7600       128
     9.7800       104
     9.8000       126
     9.8200       108
     9.8400       126
     9.8600       136
     9.8800       126
     9.9000       124
     9.9200       104
     9.9400       128
     9.9600       116
     9.9800       128
    10.0000       116
    10.0200       124
    10.0400       120
    10.0600       114
    10.0800       114
    10.1000       114
    10.1200       108
    10.1400       110
    10.1600       110
    10.1800       126
    10.2000       124
    10.2200       120
    10.2400       110
    10.2600       106
    10.2800       108
    10.3000       114
    10.3200       100
    10.3400       104
    10.3600       102
    10.3800       124
    10.4000       106
    10.4200       108
    10.4400       112
    10.4600        98
    10.4800       124
    10.5000       102
    10.5200       118
    10.5400       116
    10.5600        94
    10.5800       110
    10.6000       106
    10.6200       102
    10.6400        84
    10.6600        82
    10.6800        98
    10.7000       114
    10.7200       106
    10.7400       106
    10.7600       128
    10.7800       100
    10.8000       122
    10.8200       112
    10.8400        86
    10.8600        90
    10.8800        82
    10.9000       120
    10.9200       112
    10.9400       110
    10.9600        92
    10.9800       106
    11.0000        80
    11.0200       102
    11.0400        98
    11.0600        88
    11.0800       100
    11.1000       102
    11.1200        96
    11.1400        78
    11.1600        90
    11.1800       100
    11.2000       112
    11.2200       100
    11.2400        96
    11.2600        86
    11.2800        98
    11.3000        96
    11.3200       110
    11.3400        86
    11.3600        82
    11.3800       104
    11.4000        90
    11.4200        90
    11.4400       108
    11.4600       110
    11.4800        82
    11.5000        68
    11.5200        96
    11.5400       104
    11.5600        88
    11.5800        92
    11.6000        84
    11.6200        88
    11.6400        94
    11.6600        92
    11.6800       102
    11.7000        92
    11.7200        84
    11.7400        80
    11.7600        94
    11.7800       106
    11.8000       114
    11.8200        94
    11.8400       100
    11.8600        88
    11.8800        84
    11.9000       100
    11.9200        96
    11.9400        92
    11.9600       100
    11.9800       116
    12.0000        86
    12.0200       106
    12.0400        72
    12.0600        84
    12.0800        72
    12.1000        84
    12.1200        80
    12.1400       106
    12.1600        78
    12.1800       116
    12.2000        76
    12.2200        72
    12.2400        84
    12.2600       110
    12.2800        88
    12.3000        96
    12.3200        76
    12.3400        88
    12.3600        88
    12.3800        96
    12.4000        76
    12.4200        88
    12.4400        88
    12.4600        74
    12.4800        86
    12.5000        82
    12.5200        92
    12.5400        96
    12.5600        94
    12.5800        86
    12.6000       102
    12.6200        74
    12.6400        72
    12.6600        78
    12.6800        90
    12.7000        76
    12.7200        98
    12.7400        84
    12.7600        96
    12.7800        90
    12.8000        72
    12.8200        70
    12.8400        74
    12.8600        84
    12.8800        68
    12.9000        96
    12.9200        64
    12.9400        94
    12.9600        70
    12.9800        86
    13.0000        74
    13.0200        82
    13.0400        70
    13.0600        78
    13.0800       102
    13.1000        90
    13.1200        70
    13.1400        62
    13.1600        80
    13.1800        88
    13.2000        74
    13.2200        72
    13.2400        86
    13.2600        64
    13.2800        98
    13.3000        94
    13.3200        68
    13.3400        80
    13.3600        74
    13.3800        84
    13.4000        76
    13.4200        78
    13.4400        76
    13.4600        92
    13.4800        82
    13.5000        90
    13.5200        70
    13.5400        76
    13.5600        66
    13.5800        70
    13.6000        96
    13.6200        74
    13.6400        72
    13.6600        74
    13.6800        70
    13.7000        64
    13.7200        72
    13.7400        86
    13.7600        86
    13.7800        60
    13.8000        64
    13.8200        78
    13.8400        60
    13.8600        62
    13.8800        86
    13.9000        52
    13.9200        72
    13.9400        76
    13.9600        78
    13.9800        76
    14.0000        72
    14.0200        82
    14.0400        62
    14.0600        92
    14.0800        70
    14.1000        80
    14.1200        72
    14.1400        54
    14.1600        76
    14.1800        80
    14.2000        82
    14.2200        84
    14.2400        64
    14.2600        64
    14.2800        74
    14.3000        84
    14.3200        88
    14.3400        64
    14.3600        80
    14.3800        84
    14.4000        86
    14.4200        98
    14.4400        70
    14.4600        94
    14.4800        80
    14.5000       110
    14.5200       104
    14.5400        80
    14.5600       100
    14.5800       124
    14.6000       112
    14.6200       110
    14.6400       122
    14.6600       130
    14.6800       170
    14.7000       172
    14.7200       194
    14.7400       214
    14.7600       204
    14.7800       210
    14.8000       168
    14.8200       150
    14.8400       130
    14.8600       112
    14.8800       132
    14.9000       146
    14.9200       144
    14.9400       164
    14.9600       198
    14.9800       240
    15.0000       224
    15.0200       264
    15.0400       288
    15.0600       302
    15.0800       318
    15.1000       288
    15.1200       250
    15.1400       202
    15.1600       162
    15.1800       114
    15.2000       120
    15.2200        84
    15.2400        86
    15.2600        78
    15.2800        64
    15.3000        70
    15.3200        74
    15.3400        90
    15.3600        66
    15.3800        68
    15.4000        74
    15.4200        76
    15.4400        62
    15.4600        70
    15.4800        64
    15.5000        56
    15.5200        74
    15.5400        66
    15.5600        54
    15.5800        68
    15.6000        70
    15.6200        70
    15.6400        92
    15.6600        72
    15.6800        76
    15.7000        68
    15.7200        72
    15.7400        78
    15.7600        70
    15.7800        70
    15.8000        68
    15.8200        62
    15.8400        72
    15.8600        56
    15.8800        52
    15.9000        60
    15.9200        58
    15.9400        50
    15.9600        62
    15.9800        74
    16.0000        56
    16.0200        66
    16.0400        54
    16.0600        92
    16.0800        60
    16.1000        60
    16.1200        68
    16.1400        70
    16.1600        64
    16.1800        66
    16.2000        68
    16.2200        66
    16.2400        74
    16.2600        64
    16.2800        74
    16.3000        68
    16.3200        70
    16.3400        64
    16.3600        62
    16.3800        60
    16.4000        66
    16.4200        76
    16.4400        66
    16.4600        74
    16.4800        60
    16.5000        76
    16.5200        54
    16.5400        74
    16.5600        60
    16.5800        90
    16.6000        74
    16.6200        68
    16.6400        86
    16.6600        94
    16.6800        96
    16.7000        82
    16.7200        96
    16.7400        90
    16.7600       100
    16.7800       116
    16.8000       114
    16.8200       106
    16.8400       140
    16.8600       136
    16.8800       194
    16.9000       176
    16.9200       204
    16.9400       210
    16.9600       234
    16.9800       262
    17.0000       288
    17.0200       376
    17.0400       466
    17.0600       506
    17.0800       668
    17.1000       738
    17.1200       854
    17.1400       908
    17.1600       884
    17.1800       842
    17.2000       686
    17.2200       540
    17.2400       346
    17.2600       234
    17.2800       160
    17.3000       136
    17.3200       108
    17.3400        88
    17.3600        72
    17.3800        92
    17.4000        80
    17.4200        94
    17.4400        72
    17.4600        70
    17.4800        76
    17.5000        64
    17.5200        66
    17.5400        66
    17.5600        56
    17.5800        70
    17.6000        62
    17.6200        74
    17.6400        84
    17.6600        74
    17.6800        62
    17.7000        46
    17.7200        54
    17.7400        62
    17.7600        74
    17.7800        56
    17.8000        70
    17.8200        52
    17.8400        54
    17.8600        62
    17.8800        48
    17.9000        58
    17.9200        48
    17.9400        64
    17.9600        62
    17.9800        66
    18.0000        74
    18.0200        70
    18.0400        62
    18.0600        62
    18.0800        60
    18.1000        58
    18.1200        76
    18.1400        52
    18.1600        40
    18.1800        60
    18.2000        72
    18.2200        60
    18.2400        60
    18.2600        54
    18.2800        72
    18.3000        66
    18.3200        58
    18.3400        56
    18.3600        58
    18.3800        54
    18.4000        64
    18.4200        60
    18.4400        52
    18.4600        52
    18.4800        66
    18.5000        58
    18.5200        64
    18.5400        62
    18.5600        58
    18.5800        74
    18.6000        70
    18.6200        62
    18.6400        58
    18.6600        66
    18.6800        46
    18.7000        60
    18.7200        52
    18.7400        48
    18.7600        50
    18.7800        66
    18.8000        54
    18.8200        50
    18.8400        50
    18.8600        72
    18.8800        78
    18.9000        66
    18.9200        58
    18.9400        64
    18.9600        54
    18.9800        64
    19.0000        46
    19.0200        58
    19.0400        56
    19.0600        48
    19.0800        60
    19.1000        72
    19.1200        50
    19.1400        50
    19.1600        60
    19.1800        54
    19.2000        46
    19.2200        66
    19.2400        60
    19.2600        58
    19.2800        62
    19.3000        44
    19.3200        62
    19.3400        50
    19.3600        66
    19.3800        48
    19.4000        64
    19.4200        64
    19.4400        62
    19.4600        50
    19.4800        50
    19.5000        52
    19.5200        48
    19.5400        60
    19.5600        60
    19.5800        50
    19.6000        68
    19.6200        72
    19.6400        52
    19.6600        52
    19.6800        48
    19.7000        50
    19.7200        58
    19.7400        68
    19.7600        44
    19.7800        44
    19.8000        56
    19.8200        54
    19.8400        56
    19.8600        56
    19.8800        60
    19.9000        52
    19.9200        62
    19.9400        50
    19.9600        42
    19.9800        58
    20.0000        54
    20.0200        52
    20.0400        56
    20.0600        50
    20.0800        62
    20.1000        56
    20.1200        54
    20.1400        44
    20.1600        58
    20.1800        68
    20.2000        54
    20.2200        50
    20.2400        38
    20.2600        56
    20.2800        64
    20.3000        46
    20.3200        58
    20.3400        66
    20.3600        52
    20.3800        60
    20.4000        48
    20.4200        56
    20.4400        52
    20.4600        46
    20.4800        54
    20.5000        50
    20.5200        62
    20.5400        40
    20.5600        58
    20.5800        56
    20.6000        50
    20.6200        56
    20.6400        40
    20.6600        54
    20.6800        62
    20.7000        60
    20.7200        52
    20.7400        48
    20.7600        50
    20.7800        54
    20.8000        66
    20.8200        38
    20.8400        72
    20.8600        52
    20.8800        56
    20.9000        58
    20.9200        54
    20.9400        54
    20.9600        62
    20.9800        58
    21.0000        70
    21.0200        52
    21.0400        52
    21.0600        66
    21.0800        54
    21.1000        46
    21.1200        56
    21.1400        40
    21.1600        56
    21.1800        50
    21.2000        48
    21.2200        48
    21.2400        34
    21.2600        56
    21.2800        44
    21.3000        50
    21.3200        64
    21.3400        46
    21.3600        46
    21.3800        56
    21.4000        48
    21.4200        54
    21.4400        64
    21.4600        48
    21.4800        56
    21.5000        58
    21.5200        42
    21.5400        48
    21.5600        44
    21.5800        62
    21.6000        70
    21.6200        54
    21.6400        42
    21.6600        62
    21.6800        46
    21.7000        54
    21.7200        48
    21.7400        46
    21.7600        44
    21.7800        58
    21.8000        46
    21.8200        44
    21.8400        58
    21.8600        48
    21.8800        46
    21.9000        64
    21.9200        66
    21.9400        50
    21.9600        56
    21.9800        38
    22.0000        66
    22.0200        44
    22.0400        40
    22.0600        48
    22.0800        54
    22.1000        46
    22.1200        34
    22.1400        68
    22.1600        52
    22.1800        52
    22.2000        44
    22.2200        54
    22.2400        60
    22.2600        60
    22.2800        52
    22.3000        66
    22.3200        72
    22.3400        50
    22.3600        46
    22.3800        56
    22.4000        44
    22.4200        50
    22.4400        52
    22.4600        46
    22.4800        40
    22.5000        60
    22.5200        52
    22.5400        52
    22.5600        46
    22.5800        50
    22.6000        64
    22.6200        56
    22.6400        58
    22.6600        52
    22.6800        50
    22.7000        52
    22.7200        56
    22.7400        48
    22.7600        52
    22.7800        60
    22.8000        44
    22.8200        54
    22.8400        44
    22.8600        40
    22.8800        48
    22.9000        52
    22.9200        38
    22.9400        52
    22.9600        62
    22.9800        50
    23.0000        46
    23.0200        44
    23.0400        40
    23.0600        50
    23.0800        60
    23.1000        52
    23.1200        48
    23.1400        52
    23.1600        60
    23.1800        44
    23.2000        42
    23.2200        38
    23.2400        62
    23.2600        46
    23.2800        36
    23.3000        50
    23.3200        42
    23.3400        54
    23.3600        52
    23.3800        54
    23.4000        42
    23.4200        34
    23.4400        36
    23.4600        52
    23.4800        48
    23.5000        40
    23.5200        50
    23.5400        58
    23.5600        48
    23.5800        50
    23.6000        42
    23.6200        42
    23.6400        38
    23.6600        36
    23.6800        50
    23.7000        40
    23.7200        46
    23.7400        64
    23.7600        56
    23.7800        60
    23.8000        54
    23.8200        40
    23.8400        40
    23.8600        66
    23.8800        56
    23.9000        46
    23.9200        50
    23.9400        72
    23.9600        58
    23.9800        52
    24.0000        66
    24.0200        70
    24.0400        62
    24.0600        90
    24.0800        92
    24.1000       110
    24.1200       128
    24.1400       124
    24.1600       164
    24.1800       148
    24.2000       130
    24.2200       112
    24.2400        82
    24.2600        86
    24.2800        82
    24.3000        68
    24.3200        76
    24.3400        62
    24.3600        76
    24.3800        48
    24.4000        54
    24.4200        74
    24.4400        68
    24.4600        78
    24.4800        82
    24.5000        88
    24.5200        86
    24.5400        92
    24.5600       108
    24.5800       106
    24.6000       106
    24.6200        94
    24.6400        92
    24.6600        80
    24.6800       100
    24.7000        62
    24.7200        70
    24.7400        50
    24.7600        56
    24.7800        54
    24.8000        46
    24.8200        42
    24.8400        48
    24.8600        40
    24.8800        46
    24.9000        46
    24.9200        46
    24.9400        52
    24.9600        36
    24.9800        48
    25.0000        56
    25.0200        50
    25.0400        42
    25.0600        50
    25.0800        48
    25.1000        44
    25.1200        44
    25.1400        46
    25.1600        44
    25.1800        54
    25.2000        46
    25.2200        42
    25.2400        36
    25.2600        58
    25.2800        38
    25.3000        40
    25.3200        38
    25.3400        48
    25.3600        46
    25.3800        46
    25.4000        58
    25.4200        48
    25.4400        42
    25.4600        40
    25.4800        40
    25.5000        50
    25.5200        38
    25.5400        38
    25.5600        56
    25.5800        46
    25.6000        46
    25.6200        52
    25.6400        58
    25.6600        50
    25.6800        46
    25.7000        50
    25.7200        62
    25.7400        54
    25.7600        60
    25.7800        54
    25.8000        56
    25.8200        62
    25.8400        56
    25.8600        36
    25.8800        50
    25.9000        46
    25.9200        44
    25.9400        50
    25.9600        56
    25.9800        48
    26.0000        44
    26.0200        36
    26.0400        52
    26.0600        36
    26.0800        46
    26.1000        48
    26.1200        46
    26.1400        36
    26.1600        42
    26.1800        38
    26.2000        50
    26.2200        48
    26.2400        36
    26.2600        56
    26.2800        52
    26.3000        46
    26.3200        50
    26.3400        46
    26.3600        60
    26.3800        44
    26.4000        48
    26.4200        48
    26.4400        42
    26.4600        54
    26.4800        52
    26.5000        42
    26.5200        52
    26.5400        54
    26.5600        44
    26.5800        44
    26.6000        40
    26.6200        38
    26.6400        36
    26.6600        34
    26.6800        28
    26.7000        34
    26.7200        52
    26.7400        52
    26.7600        50
    26.7800        66
    26.8000        46
    26.8200        40
    26.8400        44
    26.8600        46
    26.8800        44
    26.9000        40
    26.9200        44
    26.9400        42
    26.9600        54
    26.9800        58
    27.0000        58
    27.0200        44
    27.0400        48
    27.0600        58
    27.0800        54
    27.1000        60
    27.1200        44
    27.1400        54
    27.1600        50
    27.1800        48
    27.2000        48
    27.2200        46
    27.2400        54
    27.2600        52
    27.2800        38
    27.3000        62
    27.3200        56
    27.3400        58
    27.3600        48
    27.3800        58
    27.4000        54
    27.4200        64
    27.4400        58
    27.4600        68
    27.4800        48
    27.5000        44
    27.5200        42
    27.5400        36
    27.5600        58
    27.5800        56
    27.6000        46
    27.6200        48
    27.6400        50
    27.6600        48
    27.6800        44
    27.7000        58
    27.7200        46
    27.7400        60
    27.7600        56
    27.7800        66
    27.8000        50
    27.8200        62
    27.8400        62
    27.8600        54
    27.8800        56
    27.9000        56
    27.9200        64
    27.9400        54
    27.9600        66
    27.9800        52
    28.0000        60
    28.0200        72
    28.0400        64
    28.0600        74
    28.0800        78
    28.1000        82
    28.1200        84
    28.1400        92
    28.1600       114
    28.1800       126
    28.2000       130
    28.2200       168
    28.2400       190
    28.2600       204
    28.2800       234
    28.3000       306
    28.3200       346
    28.3400       428
    28.3600       606
    28.3800       674
    28.4000       770
    28.4200      1000
    28.4400      1158
    28.4600      1196
    28.4800      1320
    28.5000      1266
    28.5200      1244
    28.5400      1200
    28.5600      1172
    28.5800      1184
    28.6000      1236
    28.6200      1304
    28.6400      1304
    28.6600      1232
    28.6800      1166
    28.7000      1012
    28.7200       848
    28.7400       650
    28.7600       480
    28.7800       352
    28.8000       238
    28.8200       194
    28.8400       162
    28.8600       114
    28.8800       124
    28.9000       132
    28.9200       122
    28.9400       130
    28.9600       116
    28.9800       120
    29.0000       102
    29.0200       126
    29.0400       106
    29.0600        84
    29.0800        78
    29.1000        90
    29.1200        54
    29.1400        68
    29.1600        72
    29.1800        68
    29.2000        50
    29.2200        54
    29.2400        66
    29.2600        58
    29.2800        38
    29.3000        46
    29.3200        38
    29.3400        58
    29.3600        44
    29.3800        44
    29.4000        56
    29.4200        42
    29.4400        54
    29.4600        56
    29.4800        60
    29.5000        60
    29.5200        40
    29.5400        48
    29.5600        52
    29.5800        40
    29.6000        44
    29.6200        62
    29.6400        56
    29.6600        56
    29.6800        54
    29.7000        74
    29.7200        80
    29.7400        84
    29.7600        96
    29.7800        98
    29.8000       120
    29.8200       122
    29.8400       100
    29.8600        92
    29.8800       108
    29.9000        76
    29.9200        66
    29.9400        74
    29.9600        74
    29.9800        60
    30.0000        56
    30.0200        48
    30.0400        50
    30.0600        46
    30.0800        48
    30.1000        40
    30.1200        46
    30.1400        54
    30.1600        48
    30.1800        42
    30.2000        62
    30.2200        58
    30.2400        44
    30.2600        56
    30.2800        90
    30.3000        76
    30.3200        70
    30.3400        98
    30.3600       106
    30.3800       112
    30.4000       152
    30.4200       148
    30.4400       178
    30.4600       186
    30.4800       218
    30.5000       182
    30.5200       230
    30.5400       196
    30.5600       156
    30.5800       138
    30.6000       126
    30.6200       100
    30.6400       106
    30.6600        80
    30.6800        70
    30.7000        60
    30.7200        58
    30.7400        48
    30.7600        40
    30.7800        42
    30.8000        44
    30.8200        44
    30.8400        54
    30.8600        40
    30.8800        30
    30.9000        38
    30.9200        40
    30.9400        46
    30.9600        38
    30.9800        40
    31.0000        36
    31.0200        40
    31.0400        54
    31.0600        34
    31.0800        42
    31.1000        32
    31.1200        46
    31.1400        26
    31.1600        56
    31.1800        32
    31.2000        26
    31.2200        44
    31.2400        44
    31.2600        54
    31.2800        42
    31.3000        48
    31.3200        38
    31.3400        40
    31.3600        30
    31.3800        36
    31.4000        48
    31.4200        48
    31.4400        42
    31.4600        32
    31.4800        40
    31.5000        48
    31.5200        32
    31.5400        42
    31.5600        26
    31.5800        48
    31.6000        40
    31.6200        32
    31.6400        32
    31.6600        32
    31.6800        38
    31.7000        34
    31.7200        42
    31.7400        46
    31.7600        36
    31.7800        44
    31.8000        38
    31.8200        44
    31.8400        36
    31.8600        18
    31.8800        32
    31.9000        28
    31.9200        36
    31.9400        36
    31.9600        34
    31.9800        38
    32.0000        42
    32.0200        28
    32.0400        46
    32.0600        48
    32.0800        32
    32.1000        42
    32.1200        46
    32.1400        34
    32.1600        42
    32.1800        50
    32.2000        46
    32.2200        32
    32.2400        42
    32.2600        22
    32.2800        36
    32.3000        40
    32.3200        40
    32.3400        42
    32.3600        48
    32.3800        24
    32.4000        42
    32.4200        36
    32.4400        24
    32.4600        40
    32.4800        46
    32.5000        36
    32.5200        44
    32.5400        34
    32.5600        36
    32.5800        28
    32.6000        40
    32.6200        32
    32.6400        20
    32.6600        34
    32.6800        46
    32.7000        42
    32.7200        32
    32.7400        42
    32.7600        34
    32.7800        40
    32.8000        34
    32.8200        30
    32.8400        44
    32.8600        40
    32.8800        38
    32.9000        42
    32.9200        24
    32.9400        36
    32.9600        34
    32.9800        46
    33.0000        40
    33.0200        40
    33.0400        38
    33.0600        44
    33.0800        32
    33.1000        36
    33.1200        34
    33.1400        34
    33.1600        32
    33.1800        48
    33.2000        30
    33.2200        44
    33.2400        42
    33.2600        48
    33.2800        42
    33.3000        34
    33.3200        48
    33.3400        30
    33.3600        48
    33.3800        36
    33.4000        38
    33.4200        26
    33.4400        42
    33.4600        46
    33.4800        34
    33.5000        48
    33.5200        28
    33.5400        48
    33.5600        36
    33.5800        46
    33.6000        48
    33.6200        36
    33.6400        40
    33.6600        32
    33.6800        34
    33.7000        42
    33.7200        28
    33.7400        28
    33.7600        54
    33.7800        36
    33.8000        36
    33.8200        52
    33.8400        34
    33.8600        38
    33.8800        34
    33.9000        38
    33.9200        30
    33.9400        34
    33.9600        44
    33.9800        42
    34.0000        26
    34.0200        34
    34.0400        38
    34.0600        48
    34.0800        36
    34.1000        36
    34.1200        34
    34.1400        34
    34.1600        48
    34.1800        50
    34.2000        42
    34.2200        30
    34.2400        36
    34.2600        38
    34.2800        36
    34.3000        40
    34.3200        42
    34.3400        50
    34.3600        42
    34.3800        34
    34.4000        32
    34.4200        38
    34.4400        44
    34.4600        48
    34.4800        46
    34.5000        52
    34.5200        70
    34.5400        62
    34.5600        56
    34.5800        58
    34.6000        82
    34.6200        98
    34.6400       102
    34.6600        96
    34.6800       124
    34.7000       170
    34.7200       150
    34.7400       194
    34.7600       206
    34.7800       212
    34.8000       220
    34.8200       204
    34.8400       190
    34.8600       208
    34.8800       144
    34.9000       134
    34.9200       126
    34.9400        88
    34.9600        80
    34.9800        62
    35.0000        44
    35.0200        56
    35.0400        40
    35.0600        50
    35.0800        48
    35.1000        42
    35.1200        44
    35.1400        34
    35.1600        32
    35.1800        52
    35.2000        38
    35.2200        36
    35.2400        48
    35.2600        36
    35.2800        36
    35.3000        36
    35.3200        34
    35.3400        42
    35.3600        36
    35.3800        26
    35.4000        40
    35.4200        36
    35.4400        40
    35.4600        38
    35.4800        36
    35.5000        32
    35.5200        30
    35.5400        20
    35.5600        30
    35.5800        40
    35.6000        44
    35.6200        40
    35.6400        30
    35.6600        34
    35.6800        32
    35.7000        48
    35.7200        36
    35.7400        38
    35.7600        28
    35.7800        32
    35.8000        36
    35.8200        44
    35.8400        30
    35.8600        30
    35.8800        38
    35.9000        32
    35.9200        24
    35.9400        38
    35.9600        42
    35.9800        28
    36.0000        44
    36.0200        30
    36.0400        36
    36.0600        38
    36.0800        32
    36.1000        42
    36.1200        32
    36.1400        42
    36.1600        40
    36.1800        30
    36.2000        28
    36.2200        38
    36.2400        34
    36.2600        36
    36.2800        32
    36.3000        28
    36.3200        40
    36.3400        34
    36.3600        34
    36.3800        30
    36.4000        40
    36.4200        36
    36.4400        42
    36.4600        24
    36.4800        36
    36.5000        30
    36.5200        36
    36.5400        34
    36.5600        36
    36.5800        36
    36.6000        38
    36.6200        42
    36.6400        42
    36.6600        42
    36.6800        38
    36.7000        36
    36.7200        34
    36.7400        42
    36.7600        46
    36.7800        28
    36.8000        32
    36.8200        46
    36.8400        38
    36.8600        40
    36.8800        36
    36.9000        30
    36.9200        30
    36.9400        34
    36.9600        40
    36.9800        28
    37.0000        44
    37.0200        34
    37.0400        46
    37.0600        38
    37.0800        36
    37.1000        32
    37.1200        36
    37.1400        34
    37.1600        44
    37.1800        36
    37.2000        46
    37.2200        36
    37.2400        42
    37.2600        22
    37.2800        42
    37.3000        38
    37.3200        28
    37.3400        40
    37.3600        28
    37.3800        32
    37.4000        40
    37.4200        50
    37.4400        36
    37.4600        26
    37.4800        36
    37.5000        32
    37.5200        18
    37.5400        32
    37.5600        42
    37.5800        46
    37.6000        44
    37.6200        36
    37.6400        54
    37.6600        42
    37.6800        48
    37.7000        34
    37.7200        46
    37.7400        44
    37.7600        36
    37.7800        40
    37.8000        46
    37.8200        38
    37.8400        44
    37.8600        32
    37.8800        46
    37.9000        38
    37.9200        38
    37.9400        34
    37.9600        34
    37.9800        46
    38.0000        60
    38.0200        48
    38.0400        60
    38.0600        68
    38.0800        54
    38.1000        58
    38.1200        70
    38.1400        60
    38.1600        74
    38.1800        70
    38.2000        74
    38.2200        56
    38.2400        90
    38.2600        74
    38.2800        72
    38.3000        76
    38.3200        80
    38.3400        88
    38.3600       118
    38.3800       152
    38.4000       172
    38.4200       188
    38.4400       202
    38.4600       268
    38.4800       272
    38.5000       322
    38.5200       348
    38.5400       356
    38.5600       332
    38.5800       338
    38.6000       306
    38.6200       276
    38.6400       256
    38.6600       212
    38.6800       208
    38.7000       170
    38.7200       146
    38.7400       124
    38.7600       108
    38.7800        86
    38.8000        82
    38.8200        76
    38.8400        66
    38.8600        62
    38.8800        40
    38.9000        50
    38.9200        52
    38.9400        34
    38.9600        46
    38.9800        44
    39.0000        48
    39.0200        40
    39.0400        36
    39.0600        40
    39.0800        30
    39.1000        44
    39.1200        36
    39.1400        36
    39.1600        48
    39.1800        38
    39.2000        44
    39.2200        48
    39.2400        42
    39.2600        42
    39.2800        38
    39.3000        52
    39.3200        60
    39.3400        48
    39.3600        48
    39.3800        50
    39.4000        42
    39.4200        46
    39.4400        40
    39.4600        38
    39.4800        40
    39.5000        44
    39.5200        34
    39.5400        48
    39.5600        40
    39.5800        32
    39.6000        34
    39.6200        42
    39.6400        34
    39.6600        40
    39.6800        46
    39.7000        34
    39.7200        40
    39.7400        36
    39.7600        50
    39.7800        34
    39.8000        24
    39.8200        30
    39.8400        24
    39.8600        26
    39.8800        30
    39.9000        56
    39.9200        32
    39.9400        34
    39.9600        36
    39.9800        34
    40.0000        34
    40.0200        34
    40.0400        34
    40.0600        44
    40.0800        46
    40.1000        26
    40.1200        34
    40.1400        34
    40.1600        34
    40.1800        34
    40.2000        36
    40.2200        38
    40.2400        40
    40.2600        30
    40.2800        42
    40.3000        32
    40.3200        36
    40.3400        30
    40.3600        36
    40.3800        50
    40.4000        46
    40.4200        44
    40.4400        32
    40.4600        34
    40.4800        38
    40.5000        32
    40.5200        32
    40.5400        34
    40.5600        32
    40.5800        40
    40.6000        26
    40.6200        32
    40.6400        38
    40.6600        40
    40.6800        34
    40.7000        20
    40.7200        28
    40.7400        40
    40.7600        34
    40.7800        46
    40.8000        34
    40.8200        38
    40.8400        26
    40.8600        42
    40.8800        38
    40.9000        38
    40.9200        36
    40.9400        30
    40.9600        30
    40.9800        28
    41.0000        36
    41.0200        36
    41.0400        38
    41.0600        22
    41.0800        38
    41.1000        26
    41.1200        32
    41.1400        38
    41.1600        34
    41.1800        28
    41.2000        34
    41.2200        34
    41.2400        28
    41.2600        24
    41.2800        26
    41.3000        32
    41.3200        32
    41.3400        36
    41.3600        40
    41.3800        40
    41.4000        42
    41.4200        40
    41.4400        36
    41.4600        36
    41.4800        28
    41.5000        40
    41.5200        40
    41.5400        38
    41.5600        34
    41.5800        38
    41.6000        38
    41.6200        32
    41.6400        32
    41.6600        34
    41.6800        32
    41.7000        36
    41.7200        34
    41.7400        28
    41.7600        44
    41.7800        40
    41.8000        38
    41.8200        32
    41.8400        34
    41.8600        32
    41.8800        36
    41.9000        24
    41.9200        32
    41.9400        36
    41.9600        36
    41.9800        40
    42.0000        26
    42.0200        30
    42.0400        28
    42.0600        34
    42.0800        26
    42.1000        32
    42.1200        32
    42.1400        36
    42.1600        36
    42.1800        36
    42.2000        32
    42.2200        38
    42.2400        24
    42.2600        34
    42.2800        28
    42.3000        42
    42.3200        36
    42.3400        32
    42.3600        40
    42.3800        40
    42.4000        34
    42.4200        36
    42.4400        38
    42.4600        30
    42.4800        42
    42.5000        42
    42.5200        48
    42.5400        44
    42.5600        36
    42.5800        50
    42.6000        38
    42.6200        48
    42.6400        46
    42.6600        46
    42.6800        42
    42.7000        42
    42.7200        46
    42.7400        46
    42.7600        44
    42.7800        50
    42.8000        38
    42.8200        34
    42.8400        46
    42.8600        34
    42.8800        34
    42.9000        48
    42.9200        42
    42.9400        36
    42.9600        38
    42.9800        30
    43.0000        32
    43.0200        30
    43.0400        48
    43.0600        44
    43.0800        42
    43.1000        24
    43.1200        30
    43.1400        38
    43.1600        32
    43.1800        30
    43.2000        34
    43.2200        26
    43.2400        34
    43.2600        36
    43.2800        46
    43.3000        32
    43.3200        32
    43.3400        42
    43.3600        36
    43.3800        26
    43.4000        42
    43.4200        28
    43.4400        36
    43.4600        34
    43.4800        36
    43.5000        46
    43.5200        26
    43.5400        42
    43.5600        48
    43.5800        48
    43.6000        40
    43.6200        36
    43.6400        38
    43.6600        34
    43.6800        32
    43.7000        28
    43.7200        48
    43.7400        44
    43.7600        34
    43.7800        36
    43.8000        32
    43.8200        32
    43.8400        36
    43.8600        48
    43.8800        36
    43.9000        34
    43.9200        36
    43.9400        42
    43.9600        48
    43.9800        38
    44.0000        40
    44.0200        26
    44.0400        32
    44.0600        24
    44.0800        40
    44.1000        36
    44.1200        30
    44.1400        36
    44.1600        36
    44.1800        38
    44.2000        34
    44.2200        32
    44.2400        40
    44.2600        34
    44.2800        30
    44.3000        22
    44.3200        40
    44.3400        42
    44.3600        34
    44.3800        40
    44.4000        34
    44.4200        32
    44.4400        36
    44.4600        44
    44.4800        26
    44.5000        58
    44.5200        44
    44.5400        32
    44.5600        42
    44.5800        38
    44.6000        38
    44.6200        44
    44.6400        28
    44.6600        44
    44.6800        40
    44.7000        44
    44.7200        42
    44.7400        30
    44.7600        32
    44.7800        28
    44.8000        34
    44.8200        32
    44.8400        40
    44.8600        40
    44.8800        48
    44.9000        40
    44.9200        46
    44.9400        50
    44.9600        42
    44.9800        38
    45.0000        26
    45.0200        34
    45.0400        40
    45.0600        40
    45.0800        48
    45.1000        50
    45.1200        48
    45.1400        44
    45.1600        52
    45.1800        54
    45.2000        54
    45.2200        78
    45.2400        74
    45.2600        56
    45.2800        94
    45.3000       104
    45.3200       138
    45.3400       122
    45.3600       174
    45.3800       200
    45.4000       218
    45.4200       268
    45.4400       314
    45.4600       354
    45.4800       390
    45.5000       430
    45.5200       336
    45.5400       286
    45.5600       276
    45.5800       238
    45.6000       220
    45.6200       210
    45.6400       170
    45.6600       144
    45.6800       118
    45.7000        96
    45.7200        86
    45.7400        74
    45.7600        58
    45.7800        66
    45.8000        54
    45.8200        56
    45.8400        58
    45.8600        68
    45.8800        76
    45.9000        64
    45.9200        76
    45.9400        92
    45.9600        80
    45.9800       104
    46.0000       124
    46.0200       106
    46.0400       134
    46.0600       132
    46.0800       134
    46.1000       150
    46.1200       158
    46.1400       156
    46.1600       126
    46.1800        98
    46.2000       102
    46.2200        96
    46.2400        70
    46.2600        60
    46.2800        74
    46.3000        62
    46.3200        68
    46.3400        70
    46.3600        64
    46.3800        72
    46.4000        74
    46.4200       108
    46.4400        88
    46.4600       122
    46.4800       102
    46.5000       112
    46.5200       106
    46.5400       122
    46.5600       110
    46.5800       102
    46.6000       112
    46.6200        88
    46.6400        80
    46.6600        88
    46.6800        80
    46.7000        72
    46.7200        50
    46.7400        58
    46.7600        56
    46.7800        38
    46.8000        52
    46.8200        48
    46.8400        46
    46.8600        36
    46.8800        30
    46.9000        40
    46.9200        36
    46.9400        34
    46.9600        38
    46.9800        40
    47.0000        42
    47.0200        52
    47.0400        32
    47.0600        34
    47.0800        38
    47.1000        26
    47.1200        28
    47.1400        32
    47.1600        38
    47.1800        40
    47.2000        42
    47.2200        34
    47.2400        30
    47.2600        36
    47.2800        44
    47.3000        38
    47.3200        28
    47.3400        28
    47.3600        40
    47.3800        36
    47.4000        40
    47.4200        40
    47.4400        28
    47.4600        26
    47.4800        30
    47.5000        42
    47.5200        44
    47.5400        32
    47.5600        36
    47.5800        28
    47.6000        32
    47.6200        28
    47.6400        32
    47.6600        32
    47.6800        22
    47.7000        28
    47.7200        32
    47.7400        46
    47.7600        32
    47.7800        28
    47.8000        40
    47.8200        42
    47.8400        38
    47.8600        32
    47.8800        42
    47.9000        24
    47.9200        36
    47.9400        24
    47.9600        26
    47.9800        30
    48.0000        36
    48.0200        30
    48.0400        34
    48.0600        30
    48.0800        40
    48.1000        42
    48.1200        34
    48.1400        34
    48.1600        28
    48.1800        40
    48.2000        40
    48.2200        46
    48.2400        40
    48.2600        38
    48.2800        32
    48.3000        38
    48.3200        28
    48.3400        36
    48.3600        36
    48.3800        38
    48.4000        32
    48.4200        36
    48.4400        28
    48.4600        22
    48.4800        34
    48.5000        28
    48.5200        36
    48.5400        28
    48.5600        34
    48.5800        28
    48.6000        38
    48.6200        56
    48.6400        36
    48.6600        34
    48.6800        40
    48.7000        38
    48.7200        42
    48.7400        54
    48.7600        34
    48.7800        40
    48.8000        30
    48.8200        38
    48.8400        38
    48.8600        38
    48.8800        40
    48.9000        36
    48.9200        48
    48.9400        60
    48.9600        36
    48.9800        28
    49.0000        40
    49.0200        32
    49.0400        26
    49.0600        32
    49.0800        40
    49.1000        36
    49.1200        42
    49.1400        36
    49.1600        36
    49.1800        32
    49.2000        36
    49.2200        42
    49.2400        44
    49.2600        42
    49.2800        42
    49.3000        44
    49.3200        40
    49.3400        54
    49.3600        40
    49.3800        62
    49.4000        54
    49.4200        48
    49.4400        72
    49.4600        88
    49.4800       104
    49.5000       136
    49.5200       178
    49.5400       226
    49.5600       262
    49.5800       376
    49.6000       418
    49.6200       354
    49.6400       402
    49.6600       332
    49.6800       310
    49.7000       330
    49.7200       254
    49.7400       266
    49.7600       192
    49.7800       186
    49.8000       152
    49.8200       140
    49.8400        92
    49.8600        90
    49.8800        64
    49.9000        68
    49.9200        68
    49.9400        46
    49.9600        44
    49.9800        42
    50.0000        44
    50.0200        44
    50.0400        46
    50.0600        42
    50.0800        40
    50.1000        38
    50.1200        30
    50.1400        34
    50.1600        32
    50.1800        36
    50.2000        46
    50.2200        34
    50.2400        36
    50.2600        34
    50.2800        52
    50.3000        36
    50.3200        38
    50.3400        52
    50.3600        34
    50.3800        50
    50.4000        60
    50.4200        82
    50.4400        58
    50.4600        76
    50.4800        78
    50.5000        82
    50.5200        60
    50.5400        50
    50.5600        66
    50.5800        72
    50.6000        66
    50.6200        62
    50.6400        68
    50.6600        48
    50.6800        62
    50.7000        60
    50.7200        48
    50.7400        46
    50.7600        46
    50.7800        40
    50.8000        30
    50.8200        42
    50.8400        32
    50.8600        24
    50.8800        38
    50.9000        34
    50.9200        32
    50.9400        30
    50.9600        38
    50.9800        22
    51.0000        26
    51.0200        38
    51.0400        30
    51.0600        46
    51.0800        30
    51.1000        38
    51.1200        32
    51.1400        28
    51.1600        34
    51.1800        24
    51.2000        38
    51.2200        32
    51.2400        30
    51.2600        26
    51.2800        40
    51.3000        26
    51.3200        30
    51.3400        32
    51.3600        38
    51.3800        40
    51.4000        36
    51.4200        36
    51.4400        24
    51.4600        36
    51.4800        40
    51.5000        34
    51.5200        44
    51.5400        38
    51.5600        36
    51.5800        36
    51.6000        36
    51.6200        30
    51.6400        46
    51.6600        30
    51.6800        38
    51.7000        42
    51.7200        32
    51.7400        36
    51.7600        42
    51.7800        34
    51.8000        30
    51.8200        38
    51.8400        54
    51.8600        28
    51.8800        48
    51.9000        34
    51.9200        34
    51.9400        36
    51.9600        38
    51.9800        50
    52.0000        36
    52.0200        46
    52.0400        66
    52.0600        64
    52.0800        68
    52.1000        62
    52.1200        86
    52.1400       100
    52.1600       108
    52.1800       104
    52.2000       122
    52.2200        82
    52.2400       126
    52.2600        94
    52.2800        76
    52.3000        80
    52.3200        80
    52.3400        82
    52.3600        70
    52.3800        82
    52.4000        60
    52.4200        62
    52.4400        34
    52.4600        42
    52.4800        48
    52.5000        34
    52.5200        44
    52.5400        40
    52.5600        52
    52.5800        36
    52.6000        40
    52.6200        38
    52.6400        50
    52.6600        50
    52.6800        50
    52.7000        44
    52.7200        48
    52.7400        52
    52.7600        64
    52.7800        62
    52.8000        72
    52.8200        64
    52.8400        82
    52.8600       100
    52.8800        90
    52.9000       104
    52.9200        96
    52.9400        84
    52.9600       100
    52.9800        86
    53.0000        96
    53.0200        84
    53.0400        86
    53.0600        84
    53.0800        74
    53.1000        56
    53.1200        62
    53.1400        52
    53.1600        52
    53.1800        38
    53.2000        46
    53.2200        48
    53.2400        42
    53.2600        42
    53.2800        50
    53.3000        32
    53.3200        40
    53.3400        34
    53.3600        40
    53.3800        38
    53.4000        30
    53.4200        40
    53.4400        26
    53.4600        30
    53.4800        34
    53.5000        34
    53.5200        30
    53.5400        44
    53.5600        36
    53.5800        30
    53.6000        24
    53.6200        42
    53.6400        28
    53.6600        46
    53.6800        34
    53.7000        32
    53.7200        34
    53.7400        32
    53.7600        26
    53.7800        38
    53.8000        40
    53.8200        40
    53.8400        30
    53.8600        42
    53.8800        30
    53.9000        18
    53.9200        30
    53.9400        38
    53.9600        38
    53.9800        30
    54.0000        38
    54.0200        40
    54.0400        50
    54.0600        34
    54.0800        28
    54.1000        32
    54.1200        26
    54.1400        40
    54.1600        36
    54.1800        34
    54.2000        32
    54.2200        36
    54.2400        38
    54.2600        42
    54.2800        26
    54.3000        36
    54.3200        42
    54.3400        32
    54.3600        48
    54.3800        30
    54.4000        30
    54.4200        42
    54.4400        46
    54.4600        32
    54.4800        34
    54.5000        32
    54.5200        24
    54.5400        40
    54.5600        32
    54.5800        38
    54.6000        42
    54.6200        38
    54.6400        34
    54.6600        28
    54.6800        30
    54.7000        30
    54.7200        48
    54.7400        24
    54.7600        38
    54.7800        36
    54.8000        30
    54.8200        38
    54.8400        26
    54.8600        36
    54.8800        32
    54.9000        36
    54.9200        38
    54.9400        22
    54.9600        32
    54.9800        36
    55.0000        30
    55.0200        38
    55.0400        38
    55.0600        26
    55.0800        38
    55.1000        36
    55.1200        32
    55.1400        36
    55.1600        32
    55.1800        44
    55.2000        32
    55.2200        30
    55.2400        34
    55.2600        42
    55.2800        36
    55.3000        36
    55.3200        32
    55.3400        36
    55.3600        34
    55.3800        36
    55.4000        32
    55.4200        36
    55.4400        30
    55.4600        38
    55.4800        40
    55.5000        38
    55.5200        28
    55.5400        30
    55.5600        32
    55.5800        30
    55.6000        26
    55.6200        36
    55.6400        28
    55.6600        34
    55.6800        28
    55.7000        34
    55.7200        34
    55.7400        22
    55.7600        42
    55.7800        34
    55.8000        38
    55.8200        30
    55.8400        28
    55.8600        46
    55.8800        32
    55.9000        38
    55.9200        44
    55.9400        42
    55.9600        36
    55.9800        38
    56.0000        56
    56.0200        48
    56.0400        42
    56.0600        50
    56.0800        50
    56.1000        62
    56.1200        70
    56.1400        66
    56.1600        84
    56.1800       100
    56.2000       116
    56.2200        94
    56.2400        70
    56.2600        78
    56.2800        66
    56.3000        64
    56.3200        74
    56.3400        64
    56.3600        58
    56.3800        48
    56.4000        56
    56.4200        52
    56.4400        40
    56.4600        50
    56.4800        44
    56.5000        66
    56.5200        48
    56.5400        40
    56.5600        54
    56.5800        46
    56.6000        48
    56.6200        48
    56.6400        60
    56.6600        66
    56.6800        58
    56.7000        58
    56.7200        96
    56.7400        78
    56.7600        96
    56.7800        92
    56.8000        92
    56.8200        78
    56.8400        84
    56.8600        94
    56.8800        80
    56.9000        74
    56.9200        94
    56.9400        66
    56.9600        70
    56.9800        52
    57.0000        70
    57.0200        44
    57.0400        50
    57.0600        34
    57.0800        56
    57.1000        44
    57.1200        32
    57.1400        34
    57.1600        38
    57.1800        36
    57.2000        44
    57.2200        44
    57.2400        42
    57.2600        36
    57.2800        32
    57.3000        26
    57.3200        34
    57.3400        36
    57.3600        52
    57.3800        28
    57.4000        34
    57.4200        32
    57.4400        34
    57.4600        36
    57.4800        40
    57.5000        26
    57.5200        38
    57.5400        38
    57.5600        34
    57.5800        34
    57.6000        34
    57.6200        42
    57.6400        42
    57.6600        42
    57.6800        46
    57.7000        30
    57.7200        36
    57.7400        24
    57.7600        22
    57.7800        42
    57.8000        30
    57.8200        38
    57.8400        36
    57.8600        30
    57.8800        32
    57.9000        32
    57.9200        30
    57.9400        34
    57.9600        38
    57.9800        46
    58.0000        28
    58.0200        36
    58.0400        42
    58.0600        36
    58.0800        50
    58.1000        50
    58.1200        44
    58.1400        58
    58.1600        72
    58.1800        90
    58.2000        82
    58.2200       104
    58.2400        78
    58.2600        92
    58.2800        84
    58.3000        92
    58.3200        76
    58.3400        72
    58.3600        82
    58.3800        46
    58.4000        84
    58.4200        54
    58.4400        66
    58.4600        80
    58.4800        56
    58.5000        64
    58.5200        60
    58.5400        58
    58.5600        76
    58.5800        70
    58.6000        48
    58.6200        56
    58.6400        78
    58.6600        46
    58.6800        56
    58.7000        58
    58.7200        48
    58.7400        48
    58.7600        32
    58.7800        46
    58.8000        36
    58.8200        42
    58.8400        44
    58.8600        54
    58.8800        68
    58.9000        38
    58.9200        56
    58.9400        62
    58.9600        66
    58.9800        60
    59.0000        90
    59.0200        80
    59.0400       120
    59.0600        94
    59.0800       100
    59.1000        92
    59.1200        88
    59.1400        74
    59.1600        80
    59.1800        82
    59.2000        86
    59.2200        90
    59.2400        90
    59.2600        88
    59.2800        90
    59.3000       118
    59.3200        96
    59.3400       110
    59.3600       128
    59.3800       156
    59.4000       150
    59.4200       158
    59.4400       160
    59.4600       172
    59.4800       154
    59.5000       156
    59.5200       148
    59.5400       130
    59.5600       132
    59.5800       104
    59.6000       118
    59.6200       102
    59.6400        94
    59.6600        80
    59.6800        74
    59.7000        78
    59.7200        46
    59.7400        56
    59.7600        50
    59.7800        48
    59.8000        56
    59.8200        34
    59.8400        44
    59.8600        58
    59.8800        70
    59.9000        52
    59.9200        70
    59.9400        72
    59.9600        70
    59.9800        92
    60.0000        86
    60.0200        80
    60.0400        98
    60.0600       100
    60.0800       156
    60.1000       128
    60.1200       164
    60.1400       156
    60.1600       170
    60.1800       166
    60.2000       190
    60.2200       160
    60.2400       160
    60.2600       192
    60.2800       170
    60.3000       192
    60.3200       168
    60.3400       152
    60.3600       142
    60.3800       116
    60.4000       128
    60.4200       110
    60.4400       106
    60.4600        72
    60.4800        80
    60.5000        76
    60.5200        52
    60.5400        62
    60.5600        72
    60.5800        62
    60.6000        42
    60.6200        28
    60.6400        32
    60.6600        48
    60.6800        42
    60.7000        44
    60.7200        32
    60.7400        34
    60.7600        44
    60.7800        30
    60.8000        34
    60.8200        24
    60.8400        40
    60.8600        42
    60.8800        38
    60.9000        42
    60.9200        40
    60.9400        28
    60.9600        40
    60.9800        36
    61.0000        40
    61.0200        36
    61.0400        22
    61.0600        22
    61.0800        32
    61.1000        30
    61.1200        46
    61.1400        36
    61.1600        42
    61.1800        38
    61.2000        36
    61.2200        34
    61.2400        34
    61.2600        24
    61.2800        38
    61.3000        32
    61.3200        38
    61.3400        28
    61.3600        34
    61.3800        42
    61.4000        38
    61.4200        26
    61.4400        30
    61.4600        40
    61.4800        28
    61.5000        36
    61.5200        44
    61.5400        32
    61.5600        36
    61.5800        34
    61.6000        26
    61.6200        48
    61.6400        38
    61.6600        30
    61.6800        34
    61.7000        38
    61.7200        30
    61.7400        38
    61.7600        50
    61.7800        32
    61.8000        44
    61.8200        20
    61.8400        46
    61.8600        36
    61.8800        52
    61.9000        48
    61.9200        44
    61.9400        46
    61.9600        50
    61.9800        70
    62.0000        74
    62.0200        74
    62.0400        72
    62.0600       108
    62.0800        92
    62.1000        94
    62.1200        76
    62.1400        76
    62.1600        72
    62.1800        70
    62.2000        54
    62.2200        64
    62.2400        64
    62.2600        66
    62.2800        52
    62.3000        48
    62.3200        42
    62.3400        46
    62.3600        42
    62.3800        34
    62.4000        44
    62.4200        38
    62.4400        44
    62.4600        34
    62.4800        42
    62.5000        38
    62.5200        34
    62.5400        26
    62.5600        32
    62.5800        38
    62.6000        44
    62.6200        36
    62.6400        36
    62.6600        36
    62.6800        32
    62.7000        36
    62.7200        34
    62.7400        46
    62.7600        42
    62.7800        30
    62.8000        36
    62.8200        30
    62.8400        22
    62.8600        34
    62.8800        26
    62.9000        38
    62.9200        40
    62.9400        42
    62.9600        34
    62.9800        28
    63.0000        36
    63.0200        36
    63.0400        36
    63.0600        32
    63.0800        40
    63.1000        26
    63.1200        30
    63.1400        24
    63.1600        28
    63.1800        20
    63.2000        42
    63.2200        34
    63.2400        34
    63.2600        30
    63.2800        24
    63.3000        28
    63.3200        38
    63.3400        38
    63.3600        34
    63.3800        34
    63.4000        32
    63.4200        28
    63.4400        34
    63.4600        32
    63.4800        36
    63.5000        28
    63.5200        38
    63.5400        18
    63.5600        38
    63.5800        30
    63.6000        32
    63.6200        26
    63.6400        28
    63.6600        38
    63.6800        28
    63.7000        26
    63.7200        44
    63.7400        36
    63.7600        26
    63.7800        32
    63.8000        36
    63.8200        34
    63.8400        36
    63.8600        30
    63.8800        48
    63.9000        40
    63.9200        42
    63.9400        52
    63.9600        50
    63.9800        48
    64.0000        50
    64.0200        40
    64.0400        58
    64.0600        38
    64.0800        36
    64.1000        48
    64.1200        54
    64.1400        44
    64.1600        58
    64.1800        42
    64.2000        50
    64.2200        56
    64.2400        66
    64.2600        70
    64.2800        70
    64.3000        82
    64.3200        62
    64.3400        74
    64.3600        92
    64.3800        76
    64.4000        74
    64.4200        74
    64.4400        70
    64.4600        52
    64.4800        48
    64.5000        64
    64.5200        74
    64.5400        94
    64.5600        76
    64.5800        60
    64.6000        98
    64.6200        88
    64.6400        68
    64.6600        74
    64.6800        76
    64.7000        96
    64.7200        82
    64.7400        74
    64.7600        94
    64.7800       114
    64.8000       106
    64.8200        84
    64.8400        94
    64.8600        64
    64.8800        66
    64.9000        52
    64.9200        76
    64.9400        90
    64.9600        70
    64.9800        80
    65.0000        66
