/////////////////////////////////////////////////////////////////////////////////
/// Profile Data Ascii Dump (XRD)                                             ///
/////////////////////////////////////////////////////////////////////////////////

  Group     : Swayze
  Data      : SCF-NHJ-A
  File Name : SCF-NHJ-A.RAW

# Profile Datafile
          comment             = AmmonioJarosite 
          date & time         = 08-04-09 07:51:18 

# Measurement Condition
    X-ray tube
          target              = Cu 
          voltage             = 40.0 (kV)
          current             = 30.0 (mA)
    Slits
          divergence slit     = 2.00000 (deg) 
          scatter slit        = 2.00000 (deg) 
          receiving slit      = 0.15000 (mm)  
    Scanning
          drive axis          = Theta-2Theta 
          scan range          =    4.000 -   65.000 
          scan mode           = Continuous Scan 
          scan speed          =   2.0000 (deg/min) 
          sampling pitch      =   0.0200 (deg) 
          preset time         =   0.60 (sec) 

# Data      [ Total No. = 3051 ]
  <2Theta>   <   I   >
     4.0000       178
     4.0200       176
     4.0400       192
     4.0600       162
     4.0800       176
     4.1000       172
     4.1200       200
     4.1400       180
     4.1600       204
     4.1800       208
     4.2000       182
     4.2200       188
     4.2400       162
     4.2600       158
     4.2800       168
     4.3000       156
     4.3200       196
     4.3400       188
     4.3600       182
     4.3800       160
     4.4000       184
     4.4200       156
     4.4400       138
     4.4600       162
     4.4800       180
     4.5000       158
     4.5200       140
     4.5400       180
     4.5600       168
     4.5800       170
     4.6000       130
     4.6200       180
     4.6400       174
     4.6600       174
     4.6800       164
     4.7000       184
     4.7200       150
     4.7400       166
     4.7600       184
     4.7800       176
     4.8000       164
     4.8200       180
     4.8400       194
     4.8600       132
     4.8800       178
     4.9000       144
     4.9200       134
     4.9400       154
     4.9600       158
     4.9800       126
     5.0000       152
     5.0200       154
     5.0400       134
     5.0600       142
     5.0800       146
     5.1000       160
     5.1200       172
     5.1400       160
     5.1600       136
     5.1800       150
     5.2000       160
     5.2200       142
     5.2400       140
     5.2600       172
     5.2800       168
     5.3000       128
     5.3200       124
     5.3400       166
     5.3600       156
     5.3800       146
     5.4000       150
     5.4200       170
     5.4400       152
     5.4600       156
     5.4800       154
     5.5000       168
     5.5200       152
     5.5400       154
     5.5600       152
     5.5800       154
     5.6000       152
     5.6200       156
     5.6400       158
     5.6600       164
     5.6800       158
     5.7000       144
     5.7200       172
     5.7400       136
     5.7600       178
     5.7800       154
     5.8000       168
     5.8200       142
     5.8400       144
     5.8600       166
     5.8800       166
     5.9000       148
     5.9200       152
     5.9400       148
     5.9600       166
     5.9800       134
     6.0000       150
     6.0200       162
     6.0400       148
     6.0600       166
     6.0800       154
     6.1000       142
     6.1200       158
     6.1400       152
     6.1600       144
     6.1800       142
     6.2000       162
     6.2200       150
     6.2400       128
     6.2600       150
     6.2800       136
     6.3000       160
     6.3200       140
     6.3400       140
     6.3600       150
     6.3800       144
     6.4000       122
     6.4200       150
     6.4400       136
     6.4600       136
     6.4800       134
     6.5000       124
     6.5200       140
     6.5400       128
     6.5600       112
     6.5800       142
     6.6000       140
     6.6200       128
     6.6400       120
     6.6600       120
     6.6800       138
     6.7000       140
     6.7200       102
     6.7400       134
     6.7600       118
     6.7800       118
     6.8000       124
     6.8200       104
     6.8400       116
     6.8600       114
     6.8800       114
     6.9000       106
     6.9200       100
     6.9400       106
     6.9600       110
     6.9800       118
     7.0000       124
     7.0200        98
     7.0400        90
     7.0600       128
     7.0800       108
     7.1000       108
     7.1200       118
     7.1400       122
     7.1600       114
     7.1800       110
     7.2000       108
     7.2200       116
     7.2400        94
     7.2600       110
     7.2800       110
     7.3000       126
     7.3200       112
     7.3400       106
     7.3600       112
     7.3800       104
     7.4000       120
     7.4200       128
     7.4400        90
     7.4600       106
     7.4800       132
     7.5000       120
     7.5200       124
     7.5400       118
     7.5600       126
     7.5800        96
     7.6000       100
     7.6200       100
     7.6400       118
     7.6600        88
     7.6800       112
     7.7000       120
     7.7200       104
     7.7400       108
     7.7600       112
     7.7800        92
     7.8000       126
     7.8200       128
     7.8400       104
     7.8600       106
     7.8800       116
     7.9000       102
     7.9200       110
     7.9400       124
     7.9600       130
     7.9800        88
     8.0000       118
     8.0200        96
     8.0400       116
     8.0600       104
     8.0800       100
     8.1000       118
     8.1200       108
     8.1400       100
     8.1600       118
     8.1800       118
     8.2000       114
     8.2200        96
     8.2400       108
     8.2600       130
     8.2800        98
     8.3000       104
     8.3200        94
     8.3400       114
     8.3600       130
     8.3800       138
     8.4000       102
     8.4200       114
     8.4400       112
     8.4600       110
     8.4800       116
     8.5000        88
     8.5200       134
     8.5400       124
     8.5600       116
     8.5800       116
     8.6000       108
     8.6200       110
     8.6400       102
     8.6600       120
     8.6800       152
     8.7000       112
     8.7200       132
     8.7400       108
     8.7600       110
     8.7800       100
     8.8000       106
     8.8200       104
     8.8400       122
     8.8600       108
     8.8800       112
     8.9000       110
     8.9200       108
     8.9400       106
     8.9600        98
     8.9800       116
     9.0000       124
     9.0200       118
     9.0400       116
     9.0600       108
     9.0800       118
     9.1000       104
     9.1200       108
     9.1400       106
     9.1600       118
     9.1800       102
     9.2000       116
     9.2200       104
     9.2400        98
     9.2600       100
     9.2800       104
     9.3000        94
     9.3200       114
     9.3400       102
     9.3600       120
     9.3800       114
     9.4000       124
     9.4200       114
     9.4400       110
     9.4600       128
     9.4800       106
     9.5000       100
     9.5200       100
     9.5400       108
     9.5600        94
     9.5800       108
     9.6000       112
     9.6200        92
     9.6400       116
     9.6600       122
     9.6800       120
     9.7000       116
     9.7200       102
     9.7400       122
     9.7600       118
     9.7800       100
     9.8000        98
     9.8200       112
     9.8400       112
     9.8600       114
     9.8800       114
     9.9000        72
     9.9200        96
     9.9400       116
     9.9600       114
     9.9800       108
    10.0000       110
    10.0200       116
    10.0400       102
    10.0600       104
    10.0800        96
    10.1000       108
    10.1200        86
    10.1400       108
    10.1600        86
    10.1800        94
    10.2000       104
    10.2200        88
    10.2400       102
    10.2600       104
    10.2800        90
    10.3000        86
    10.3200       104
    10.3400        98
    10.3600       106
    10.3800       128
    10.4000        84
    10.4200       102
    10.4400        90
    10.4600        92
    10.4800       100
    10.5000        90
    10.5200       112
    10.5400        92
    10.5600       118
    10.5800       104
    10.6000        88
    10.6200       104
    10.6400        84
    10.6600        96
    10.6800        90
    10.7000        80
    10.7200        90
    10.7400        88
    10.7600       110
    10.7800        92
    10.8000        88
    10.8200        88
    10.8400        76
    10.8600        92
    10.8800        78
    10.9000       102
    10.9200        96
    10.9400       100
    10.9600        88
    10.9800        90
    11.0000       102
    11.0200       106
    11.0400       102
    11.0600        90
    11.0800        76
    11.1000        88
    11.1200        80
    11.1400        94
    11.1600        84
    11.1800        72
    11.2000        80
    11.2200        84
    11.2400        86
    11.2600        90
    11.2800        84
    11.3000        84
    11.3200        92
    11.3400        84
    11.3600        86
    11.3800        90
    11.4000       100
    11.4200        82
    11.4400        92
    11.4600        70
    11.4800        78
    11.5000        66
    11.5200        94
    11.5400        78
    11.5600        92
    11.5800        80
    11.6000       102
    11.6200        74
    11.6400        90
    11.6600        72
    11.6800        82
    11.7000        84
    11.7200        72
    11.7400        90
    11.7600        90
    11.7800        80
    11.8000        90
    11.8200        88
    11.8400        78
    11.8600        96
    11.8800        76
    11.9000        76
    11.9200        86
    11.9400        78
    11.9600        80
    11.9800        74
    12.0000       100
    12.0200        78
    12.0400        80
    12.0600        76
    12.0800        90
    12.1000        64
    12.1200        72
    12.1400        82
    12.1600        80
    12.1800        82
    12.2000        74
    12.2200        80
    12.2400        90
    12.2600        52
    12.2800        90
    12.3000        80
    12.3200        98
    12.3400        80
    12.3600        86
    12.3800        78
    12.4000        90
    12.4200        88
    12.4400        66
    12.4600        58
    12.4800        78
    12.5000        96
    12.5200        86
    12.5400        74
    12.5600        64
    12.5800        98
    12.6000        86
    12.6200        74
    12.6400        76
    12.6600        90
    12.6800        64
    12.7000        68
    12.7200        68
    12.7400        80
    12.7600        80
    12.7800        68
    12.8000        80
    12.8200        74
    12.8400        74
    12.8600        86
    12.8800        70
    12.9000        72
    12.9200        70
    12.9400        64
    12.9600        84
    12.9800        74
    13.0000        64
    13.0200        74
    13.0400        70
    13.0600        74
    13.0800        76
    13.1000        88
    13.1200        60
    13.1400        62
    13.1600        68
    13.1800        80
    13.2000        78
    13.2200        70
    13.2400        80
    13.2600        84
    13.2800        74
    13.3000        80
    13.3200        62
    13.3400        82
    13.3600        60
    13.3800        72
    13.4000        68
    13.4200        74
    13.4400        70
    13.4600        56
    13.4800        68
    13.5000        56
    13.5200        66
    13.5400        76
    13.5600        70
    13.5800        72
    13.6000        70
    13.6200        76
    13.6400        80
    13.6600        74
    13.6800        76
    13.7000        80
    13.7200        76
    13.7400        74
    13.7600        68
    13.7800        80
    13.8000        74
    13.8200        66
    13.8400        62
    13.8600        56
    13.8800        84
    13.9000        68
    13.9200        72
    13.9400        54
    13.9600        68
    13.9800        70
    14.0000        72
    14.0200        68
    14.0400        66
    14.0600        70
    14.0800        84
    14.1000        86
    14.1200        82
    14.1400        86
    14.1600        76
    14.1800        68
    14.2000        70
    14.2200        68
    14.2400        66
    14.2600        66
    14.2800        66
    14.3000        72
    14.3200        76
    14.3400        82
    14.3600        56
    14.3800        78
    14.4000        70
    14.4200       106
    14.4400        78
    14.4600        58
    14.4800        72
    14.5000        82
    14.5200        68
    14.5400        88
    14.5600        82
    14.5800        88
    14.6000        68
    14.6200        90
    14.6400        98
    14.6600        74
    14.6800        98
    14.7000       120
    14.7200       150
    14.7400       140
    14.7600       136
    14.7800       178
    14.8000       180
    14.8200       198
    14.8400       220
    14.8600       204
    14.8800       182
    14.9000       140
    14.9200       148
    14.9400       140
    14.9600       124
    14.9800       150
    15.0000       164
    15.0200       162
    15.0400       218
    15.0600       206
    15.0800       240
    15.1000       282
    15.1200       294
    15.1400       294
    15.1600       276
    15.1800       254
    15.2000       244
    15.2200       196
    15.2400       164
    15.2600       108
    15.2800        90
    15.3000        84
    15.3200        72
    15.3400        88
    15.3600        62
    15.3800        72
    15.4000        76
    15.4200        72
    15.4400        56
    15.4600        58
    15.4800        72
    15.5000        60
    15.5200        68
    15.5400        74
    15.5600        58
    15.5800        76
    15.6000        66
    15.6200        60
    15.6400        58
    15.6600        60
    15.6800        80
    15.7000        54
    15.7200        64
    15.7400        84
    15.7600        70
    15.7800        68
    15.8000        56
    15.8200        66
    15.8400        50
    15.8600        52
    15.8800        62
    15.9000        70
    15.9200        60
    15.9400        66
    15.9600        64
    15.9800        54
    16.0000        50
    16.0200        72
    16.0400        70
    16.0600        58
    16.0800        50
    16.1000        54
    16.1200        60
    16.1400        56
    16.1600        56
    16.1800        68
    16.2000        62
    16.2200        56
    16.2400        52
    16.2600        60
    16.2800        54
    16.3000        68
    16.3200        58
    16.3400        60
    16.3600        56
    16.3800        50
    16.4000        68
    16.4200        60
    16.4400        66
    16.4600        76
    16.4800        68
    16.5000        68
    16.5200        62
    16.5400        54
    16.5600        60
    16.5800        68
    16.6000        46
    16.6200        58
    16.6400        74
    16.6600        76
    16.6800        72
    16.7000        78
    16.7200        78
    16.7400        86
    16.7600        86
    16.7800        84
    16.8000        80
    16.8200       112
    16.8400        96
    16.8600       102
    16.8800       110
    16.9000       118
    16.9200       134
    16.9400       148
    16.9600       162
    16.9800       188
    17.0000       196
    17.0200       240
    17.0400       274
    17.0600       320
    17.0800       362
    17.1000       354
    17.1200       476
    17.1400       596
    17.1600       692
    17.1800       754
    17.2000       872
    17.2200       886
    17.2400       832
    17.2600       778
    17.2800       630
    17.3000       480
    17.3200       280
    17.3400       208
    17.3600       168
    17.3800       112
    17.4000       112
    17.4200       100
    17.4400        72
    17.4600        62
    17.4800        74
    17.5000        64
    17.5200        86
    17.5400        56
    17.5600        66
    17.5800        78
    17.6000        58
    17.6200        68
    17.6400        68
    17.6600        62
    17.6800        60
    17.7000        62
    17.7200        60
    17.7400        56
    17.7600        62
    17.7800        62
    17.8000        68
    17.8200        60
    17.8400        62
    17.8600        70
    17.8800        70
    17.9000        50
    17.9200        64
    17.9400        58
    17.9600        64
    17.9800        62
    18.0000        74
    18.0200        72
    18.0400        74
    18.0600        36
    18.0800        54
    18.1000        50
    18.1200        52
    18.1400        54
    18.1600        56
    18.1800        58
    18.2000        56
    18.2200        46
    18.2400        50
    18.2600        58
    18.2800        44
    18.3000        44
    18.3200        60
    18.3400        48
    18.3600        50
    18.3800        60
    18.4000        62
    18.4200        50
    18.4400        60
    18.4600        54
    18.4800        62
    18.5000        50
    18.5200        54
    18.5400        54
    18.5600        58
    18.5800        50
    18.6000        48
    18.6200        68
    18.6400        54
    18.6600        36
    18.6800        54
    18.7000        54
    18.7200        48
    18.7400        50
    18.7600        58
    18.7800        58
    18.8000        46
    18.8200        50
    18.8400        48
    18.8600        46
    18.8800        50
    18.9000        56
    18.9200        48
    18.9400        50
    18.9600        38
    18.9800        50
    19.0000        50
    19.0200        64
    19.0400        68
    19.0600        58
    19.0800        44
    19.1000        48
    19.1200        58
    19.1400        66
    19.1600        50
    19.1800        54
    19.2000        62
    19.2200        46
    19.2400        52
    19.2600        48
    19.2800        50
    19.3000        48
    19.3200        48
    19.3400        44
    19.3600        54
    19.3800        58
    19.4000        56
    19.4200        48
    19.4400        42
    19.4600        60
    19.4800        44
    19.5000        36
    19.5200        50
    19.5400        56
    19.5600        50
    19.5800        42
    19.6000        56
    19.6200        52
    19.6400        52
    19.6600        50
    19.6800        48
    19.7000        56
    19.7200        56
    19.7400        46
    19.7600        46
    19.7800        58
    19.8000        48
    19.8200        58
    19.8400        44
    19.8600        44
    19.8800        54
    19.9000        46
    19.9200        48
    19.9400        54
    19.9600        38
    19.9800        48
    20.0000        50
    20.0200        52
    20.0400        60
    20.0600        42
    20.0800        48
    20.1000        52
    20.1200        56
    20.1400        42
    20.1600        48
    20.1800        40
    20.2000        50
    20.2200        58
    20.2400        60
    20.2600        50
    20.2800        58
    20.3000        48
    20.3200        64
    20.3400        44
    20.3600        54
    20.3800        62
    20.4000        46
    20.4200        46
    20.4400        44
    20.4600        40
    20.4800        58
    20.5000        54
    20.5200        46
    20.5400        52
    20.5600        56
    20.5800        44
    20.6000        52
    20.6200        56
    20.6400        60
    20.6600        74
    20.6800        50
    20.7000        42
    20.7200        56
    20.7400        40
    20.7600        56
    20.7800        46
    20.8000        58
    20.8200        44
    20.8400        54
    20.8600        62
    20.8800        46
    20.9000        52
    20.9200        50
    20.9400        48
    20.9600        52
    20.9800        54
    21.0000        48
    21.0200        50
    21.0400        48
    21.0600        52
    21.0800        44
    21.1000        48
    21.1200        46
    21.1400        48
    21.1600        46
    21.1800        50
    21.2000        60
    21.2200        38
    21.2400        56
    21.2600        36
    21.2800        40
    21.3000        46
    21.3200        48
    21.3400        34
    21.3600        54
    21.3800        50
    21.4000        38
    21.4200        50
    21.4400        52
    21.4600        42
    21.4800        34
    21.5000        44
    21.5200        46
    21.5400        46
    21.5600        46
    21.5800        56
    21.6000        46
    21.6200        44
    21.6400        44
    21.6600        60
    21.6800        42
    21.7000        44
    21.7200        46
    21.7400        36
    21.7600        64
    21.7800        60
    21.8000        46
    21.8200        50
    21.8400        36
    21.8600        40
    21.8800        44
    21.9000        48
    21.9200        54
    21.9400        54
    21.9600        48
    21.9800        42
    22.0000        52
    22.0200        38
    22.0400        44
    22.0600        42
    22.0800        48
    22.1000        44
    22.1200        58
    22.1400        52
    22.1600        44
    22.1800        42
    22.2000        54
    22.2200        54
    22.2400        40
    22.2600        40
    22.2800        42
    22.3000        48
    22.3200        52
    22.3400        48
    22.3600        52
    22.3800        48
    22.4000        50
    22.4200        56
    22.4400        48
    22.4600        38
    22.4800        36
    22.5000        50
    22.5200        30
    22.5400        54
    22.5600        38
    22.5800        44
    22.6000        42
    22.6200        44
    22.6400        56
    22.6600        54
    22.6800        52
    22.7000        42
    22.7200        46
    22.7400        52
    22.7600        42
    22.7800        54
    22.8000        48
    22.8200        44
    22.8400        34
    22.8600        48
    22.8800        48
    22.9000        54
    22.9200        42
    22.9400        58
    22.9600        34
    22.9800        40
    23.0000        40
    23.0200        50
    23.0400        48
    23.0600        42
    23.0800        46
    23.1000        40
    23.1200        38
    23.1400        44
    23.1600        58
    23.1800        34
    23.2000        48
    23.2200        46
    23.2400        50
    23.2600        46
    23.2800        40
    23.3000        40
    23.3200        52
    23.3400        52
    23.3600        44
    23.3800        42
    23.4000        36
    23.4200        52
    23.4400        40
    23.4600        52
    23.4800        58
    23.5000        42
    23.5200        42
    23.5400        42
    23.5600        40
    23.5800        50
    23.6000        54
    23.6200        34
    23.6400        52
    23.6600        48
    23.6800        34
    23.7000        44
    23.7200        50
    23.7400        40
    23.7600        54
    23.7800        44
    23.8000        40
    23.8200        52
    23.8400        42
    23.8600        48
    23.8800        46
    23.9000        46
    23.9200        38
    23.9400        44
    23.9600        52
    23.9800        70
    24.0000        58
    24.0200        52
    24.0400        64
    24.0600        68
    24.0800        70
    24.1000        84
    24.1200        72
    24.1400        92
    24.1600        92
    24.1800        92
    24.2000       110
    24.2200       130
    24.2400       134
    24.2600       124
    24.2800       116
    24.3000       112
    24.3200       100
    24.3400        92
    24.3600        84
    24.3800        66
    24.4000        58
    24.4200        66
    24.4400        52
    24.4600        54
    24.4800        52
    24.5000        72
    24.5200        70
    24.5400        72
    24.5600        90
    24.5800       102
    24.6000       102
    24.6200        92
    24.6400        96
    24.6600        98
    24.6800       112
    24.7000        98
    24.7200        90
    24.7400        76
    24.7600        82
    24.7800        64
    24.8000        54
    24.8200        62
    24.8400        40
    24.8600        50
    24.8800        42
    24.9000        40
    24.9200        36
    24.9400        62
    24.9600        42
    24.9800        56
    25.0000        46
    25.0200        42
    25.0400        40
    25.0600        42
    25.0800        62
    25.1000        36
    25.1200        38
    25.1400        60
    25.1600        34
    25.1800        46
    25.2000        34
    25.2200        38
    25.2400        56
    25.2600        40
    25.2800        36
    25.3000        60
    25.3200        40
    25.3400        36
    25.3600        48
    25.3800        38
    25.4000        34
    25.4200        46
    25.4400        48
    25.4600        44
    25.4800        54
    25.5000        40
    25.5200        48
    25.5400        36
    25.5600        50
    25.5800        44
    25.6000        54
    25.6200        44
    25.6400        44
    25.6600        42
    25.6800        48
    25.7000        46
    25.7200        54
    25.7400        56
    25.7600        52
    25.7800        60
    25.8000        62
    25.8200        62
    25.8400        40
    25.8600        52
    25.8800        44
    25.9000        42
    25.9200        58
    25.9400        48
    25.9600        44
    25.9800        52
    26.0000        40
    26.0200        40
    26.0400        36
    26.0600        52
    26.0800        44
    26.1000        48
    26.1200        34
    26.1400        30
    26.1600        60
    26.1800        50
    26.2000        44
    26.2200        50
    26.2400        44
    26.2600        48
    26.2800        50
    26.3000        50
    26.3200        40
    26.3400        44
    26.3600        46
    26.3800        42
    26.4000        44
    26.4200        52
    26.4400        46
    26.4600        44
    26.4800        48
    26.5000        44
    26.5200        54
    26.5400        62
    26.5600        40
    26.5800        56
    26.6000        44
    26.6200        40
    26.6400        38
    26.6600        26
    26.6800        50
    26.7000        36
    26.7200        58
    26.7400        42
    26.7600        54
    26.7800        48
    26.8000        42
    26.8200        44
    26.8400        38
    26.8600        48
    26.8800        56
    26.9000        50
    26.9200        36
    26.9400        38
    26.9600        44
    26.9800        28
    27.0000        50
    27.0200        58
    27.0400        40
    27.0600        50
    27.0800        56
    27.1000        38
    27.1200        44
    27.1400        52
    27.1600        54
    27.1800        54
    27.2000        36
    27.2200        36
    27.2400        44
    27.2600        52
    27.2800        38
    27.3000        52
    27.3200        42
    27.3400        52
    27.3600        42
    27.3800        60
    27.4000        46
    27.4200        40
    27.4400        56
    27.4600        56
    27.4800        56
    27.5000        60
    27.5200        64
    27.5400        68
    27.5600        64
    27.5800        52
    27.6000        48
    27.6200        56
    27.6400        48
    27.6600        48
    27.6800        52
    27.7000        54
    27.7200        64
    27.7400        60
    27.7600        46
    27.7800        34
    27.8000        64
    27.8200        34
    27.8400        56
    27.8600        64
    27.8800        62
    27.9000        46
    27.9200        48
    27.9400        58
    27.9600        62
    27.9800        68
    28.0000        56
    28.0200        62
    28.0400        72
    28.0600        56
    28.0800        64
    28.1000        66
    28.1200        84
    28.1400        78
    28.1600        72
    28.1800        84
    28.2000        96
    28.2200       126
    28.2400       114
    28.2600       142
    28.2800       144
    28.3000       154
    28.3200       186
    28.3400       226
    28.3600       282
    28.3800       360
    28.4000       430
    28.4200       490
    28.4400       606
    28.4600       738
    28.4800       906
    28.5000      1012
    28.5200      1086
    28.5400      1226
    28.5600      1186
    28.5800      1290
    28.6000      1160
    28.6200      1204
    28.6400      1160
    28.6600      1190
    28.6800      1230
    28.7000      1176
    28.7200      1206
    28.7400      1114
    28.7600      1018
    28.7800       892
    28.8000       734
    28.8200       542
    28.8400       424
    28.8600       340
    28.8800       260
    28.9000       182
    28.9200       154
    28.9400       138
    28.9600       118
    28.9800       116
    29.0000       138
    29.0200       118
    29.0400       128
    29.0600       124
    29.0800       126
    29.1000        92
    29.1200       114
    29.1400        88
    29.1600        74
    29.1800        80
    29.2000        62
    29.2200        76
    29.2400        58
    29.2600        60
    29.2800        60
    29.3000        52
    29.3200        44
    29.3400        40
    29.3600        42
    29.3800        62
    29.4000        50
    29.4200        60
    29.4400        54
    29.4600        52
    29.4800        52
    29.5000        50
    29.5200        50
    29.5400        46
    29.5600        58
    29.5800        40
    29.6000        42
    29.6200        52
    29.6400        56
    29.6600        48
    29.6800        48
    29.7000        60
    29.7200        66
    29.7400        74
    29.7600        72
    29.7800        62
    29.8000        74
    29.8200        82
    29.8400        88
    29.8600        96
    29.8800       106
    29.9000        88
    29.9200        90
    29.9400       106
    29.9600        76
    29.9800        76
    30.0000        62
    30.0200        64
    30.0400        50
    30.0600        52
    30.0800        42
    30.1000        42
    30.1200        60
    30.1400        44
    30.1600        48
    30.1800        42
    30.2000        48
    30.2200        48
    30.2400        50
    30.2600        58
    30.2800        52
    30.3000        58
    30.3200        76
    30.3400        86
    30.3600        88
    30.3800        76
    30.4000       110
    30.4200        96
    30.4400       122
    30.4600       130
    30.4800       162
    30.5000       184
    30.5200       160
    30.5400       198
    30.5600       204
    30.5800       184
    30.6000       212
    30.6200       150
    30.6400       168
    30.6600       140
    30.6800       116
    30.7000       120
    30.7200        90
    30.7400        74
    30.7600        52
    30.7800        50
    30.8000        64
    30.8200        50
    30.8400        28
    30.8600        44
    30.8800        36
    30.9000        54
    30.9200        46
    30.9400        46
    30.9600        40
    30.9800        60
    31.0000        34
    31.0200        50
    31.0400        44
    31.0600        50
    31.0800        48
    31.1000        46
    31.1200        40
    31.1400        36
    31.1600        46
    31.1800        42
    31.2000        42
    31.2200        38
    31.2400        44
    31.2600        50
    31.2800        36
    31.3000        34
    31.3200        44
    31.3400        36
    31.3600        30
    31.3800        44
    31.4000        46
    31.4200        34
    31.4400        38
    31.4600        44
    31.4800        48
    31.5000        42
    31.5200        40
    31.5400        34
    31.5600        40
    31.5800        40
    31.6000        40
    31.6200        34
    31.6400        46
    31.6600        34
    31.6800        46
    31.7000        30
    31.7200        56
    31.7400        36
    31.7600        32
    31.7800        36
    31.8000        32
    31.8200        46
    31.8400        34
    31.8600        44
    31.8800        26
    31.9000        40
    31.9200        38
    31.9400        40
    31.9600        38
    31.9800        42
    32.0000        32
    32.0200        34
    32.0400        44
    32.0600        40
    32.0800        48
    32.1000        38
    32.1200        38
    32.1400        38
    32.1600        38
    32.1800        36
    32.2000        42
    32.2200        40
    32.2400        36
    32.2600        42
    32.2800        26
    32.3000        24
    32.3200        36
    32.3400        40
    32.3600        46
    32.3800        36
    32.4000        44
    32.4200        40
    32.4400        48
    32.4600        40
    32.4800        32
    32.5000        26
    32.5200        38
    32.5400        42
    32.5600        44
    32.5800        44
    32.6000        32
    32.6200        42
    32.6400        44
    32.6600        32
    32.6800        42
    32.7000        28
    32.7200        38
    32.7400        40
    32.7600        38
    32.7800        26
    32.8000        46
    32.8200        30
    32.8400        32
    32.8600        42
    32.8800        28
    32.9000        36
    32.9200        22
    32.9400        36
    32.9600        40
    32.9800        42
    33.0000        46
    33.0200        32
    33.0400        34
    33.0600        38
    33.0800        32
    33.1000        50
    33.1200        58
    33.1400        32
    33.1600        40
    33.1800        32
    33.2000        50
    33.2200        32
    33.2400        36
    33.2600        44
    33.2800        36
    33.3000        46
    33.3200        32
    33.3400        48
    33.3600        34
    33.3800        30
    33.4000        26
    33.4200        38
    33.4400        38
    33.4600        28
    33.4800        28
    33.5000        46
    33.5200        44
    33.5400        44
    33.5600        42
    33.5800        40
    33.6000        32
    33.6200        40
    33.6400        38
    33.6600        52
    33.6800        34
    33.7000        34
    33.7200        40
    33.7400        36
    33.7600        38
    33.7800        42
    33.8000        28
    33.8200        34
    33.8400        32
    33.8600        34
    33.8800        36
    33.9000        38
    33.9200        34
    33.9400        42
    33.9600        40
    33.9800        36
    34.0000        40
    34.0200        50
    34.0400        28
    34.0600        30
    34.0800        36
    34.1000        38
    34.1200        30
    34.1400        32
    34.1600        44
    34.1800        40
    34.2000        38
    34.2200        40
    34.2400        38
    34.2600        48
    34.2800        34
    34.3000        44
    34.3200        36
    34.3400        44
    34.3600        40
    34.3800        32
    34.4000        44
    34.4200        34
    34.4400        28
    34.4600        40
    34.4800        44
    34.5000        46
    34.5200        40
    34.5400        52
    34.5600        58
    34.5800        44
    34.6000        42
    34.6200        60
    34.6400        76
    34.6600        82
    34.6800        86
    34.7000        86
    34.7200       116
    34.7400       122
    34.7600       136
    34.7800       168
    34.8000       168
    34.8200       184
    34.8400       194
    34.8600       208
    34.8800       206
    34.9000       218
    34.9200       196
    34.9400       166
    34.9600       154
    34.9800       116
    35.0000       110
    35.0200        90
    35.0400        60
    35.0600        68
    35.0800        60
    35.1000        38
    35.1200        50
    35.1400        36
    35.1600        38
    35.1800        38
    35.2000        32
    35.2200        34
    35.2400        44
    35.2600        32
    35.2800        50
    35.3000        28
    35.3200        26
    35.3400        52
    35.3600        48
    35.3800        28
    35.4000        48
    35.4200        42
    35.4400        34
    35.4600        38
    35.4800        42
    35.5000        44
    35.5200        36
    35.5400        40
    35.5600        36
    35.5800        44
    35.6000        32
    35.6200        34
    35.6400        38
    35.6600        26
    35.6800        28
    35.7000        30
    35.7200        30
    35.7400        30
    35.7600        36
    35.7800        36
    35.8000        32
    35.8200        32
    35.8400        24
    35.8600        32
    35.8800        30
    35.9000        18
    35.9200        42
    35.9400        28
    35.9600        50
    35.9800        52
    36.0000        36
    36.0200        40
    36.0400        38
    36.0600        46
    36.0800        40
    36.1000        32
    36.1200        30
    36.1400        36
    36.1600        24
    36.1800        34
    36.2000        30
    36.2200        44
    36.2400        36
    36.2600        36
    36.2800        34
    36.3000        40
    36.3200        34
    36.3400        38
    36.3600        34
    36.3800        40
    36.4000        26
    36.4200        42
    36.4400        30
    36.4600        30
    36.4800        36
    36.5000        18
    36.5200        40
    36.5400        24
    36.5600        40
    36.5800        36
    36.6000        44
    36.6200        28
    36.6400        44
    36.6600        40
    36.6800        32
    36.7000        30
    36.7200        24
    36.7400        42
    36.7600        40
    36.7800        40
    36.8000        26
    36.8200        38
    36.8400        34
    36.8600        32
    36.8800        42
    36.9000        44
    36.9200        40
    36.9400        42
    36.9600        40
    36.9800        40
    37.0000        48
    37.0200        24
    37.0400        34
    37.0600        36
    37.0800        36
    37.1000        48
    37.1200        30
    37.1400        36
    37.1600        28
    37.1800        36
    37.2000        34
    37.2200        34
    37.2400        30
    37.2600        40
    37.2800        30
    37.3000        48
    37.3200        38
    37.3400        24
    37.3600        40
    37.3800        24
    37.4000        52
    37.4200        40
    37.4400        36
    37.4600        46
    37.4800        34
    37.5000        40
    37.5200        30
    37.5400        34
    37.5600        38
    37.5800        48
    37.6000        40
    37.6200        40
    37.6400        28
    37.6600        36
    37.6800        46
    37.7000        52
    37.7200        40
    37.7400        46
    37.7600        48
    37.7800        38
    37.8000        34
    37.8200        36
    37.8400        44
    37.8600        24
    37.8800        40
    37.9000        46
    37.9200        32
    37.9400        56
    37.9600        42
    37.9800        46
    38.0000        32
    38.0200        40
    38.0400        40
    38.0600        44
    38.0800        52
    38.1000        54
    38.1200        52
    38.1400        56
    38.1600        46
    38.1800        50
    38.2000        72
    38.2200        76
    38.2400        68
    38.2600        58
    38.2800        68
    38.3000        70
    38.3200        62
    38.3400        78
    38.3600       108
    38.3800        92
    38.4000       108
    38.4200       112
    38.4400       146
    38.4600       168
    38.4800       202
    38.5000       244
    38.5200       244
    38.5400       302
    38.5600       290
    38.5800       326
    38.6000       362
    38.6200       346
    38.6400       330
    38.6600       328
    38.6800       296
    38.7000       278
    38.7200       240
    38.7400       238
    38.7600       184
    38.7800       140
    38.8000       118
    38.8200       112
    38.8400        90
    38.8600        94
    38.8800        74
    38.9000        62
    38.9200        70
    38.9400        54
    38.9600        46
    38.9800        46
    39.0000        42
    39.0200        50
    39.0400        48
    39.0600        46
    39.0800        30
    39.1000        38
    39.1200        26
    39.1400        38
    39.1600        38
    39.1800        40
    39.2000        28
    39.2200        36
    39.2400        32
    39.2600        40
    39.2800        46
    39.3000        48
    39.3200        48
    39.3400        50
    39.3600        44
    39.3800        48
    39.4000        44
    39.4200        52
    39.4400        50
    39.4600        44
    39.4800        52
    39.5000        38
    39.5200        50
    39.5400        38
    39.5600        52
    39.5800        34
    39.6000        34
    39.6200        32
    39.6400        38
    39.6600        40
    39.6800        30
    39.7000        28
    39.7200        30
    39.7400        38
    39.7600        42
    39.7800        36
    39.8000        32
    39.8200        36
    39.8400        30
    39.8600        32
    39.8800        26
    39.9000        26
    39.9200        44
    39.9400        24
    39.9600        32
    39.9800        32
    40.0000        20
    40.0200        30
    40.0400        48
    40.0600        32
    40.0800        24
    40.1000        34
    40.1200        44
    40.1400        36
    40.1600        28
    40.1800        34
    40.2000        30
    40.2200        38
    40.2400        38
    40.2600        26
    40.2800        34
    40.3000        36
    40.3200        50
    40.3400        32
    40.3600        32
    40.3800        28
    40.4000        42
    40.4200        46
    40.4400        32
    40.4600        38
    40.4800        36
    40.5000        36
    40.5200        28
    40.5400        24
    40.5600        32
    40.5800        24
    40.6000        30
    40.6200        32
    40.6400        36
    40.6600        34
    40.6800        24
    40.7000        36
    40.7200        30
    40.7400        28
    40.7600        20
    40.7800        30
    40.8000        40
    40.8200        28
    40.8400        34
    40.8600        36
    40.8800        40
    40.9000        34
    40.9200        22
    40.9400        36
    40.9600        34
    40.9800        42
    41.0000        32
    41.0200        28
    41.0400        22
    41.0600        40
    41.0800        40
    41.1000        30
    41.1200        30
    41.1400        40
    41.1600        38
    41.1800        24
    41.2000        34
    41.2200        26
    41.2400        38
    41.2600        36
    41.2800        32
    41.3000        36
    41.3200        38
    41.3400        34
    41.3600        32
    41.3800        30
    41.4000        38
    41.4200        38
    41.4400        32
    41.4600        28
    41.4800        28
    41.5000        28
    41.5200        28
    41.5400        38
    41.5600        38
    41.5800        30
    41.6000        40
    41.6200        36
    41.6400        28
    41.6600        34
    41.6800        32
    41.7000        38
    41.7200        26
    41.7400        26
    41.7600        26
    41.7800        24
    41.8000        32
    41.8200        30
    41.8400        20
    41.8600        30
    41.8800        32
    41.9000        24
    41.9200        32
    41.9400        34
    41.9600        38
    41.9800        38
    42.0000        32
    42.0200        40
    42.0400        20
    42.0600        28
    42.0800        30
    42.1000        38
    42.1200        32
    42.1400        28
    42.1600        40
    42.1800        32
    42.2000        30
    42.2200        38
    42.2400        34
    42.2600        36
    42.2800        34
    42.3000        34
    42.3200        32
    42.3400        34
    42.3600        36
    42.3800        30
    42.4000        46
    42.4200        40
    42.4400        46
    42.4600        40
    42.4800        42
    42.5000        44
    42.5200        32
    42.5400        32
    42.5600        40
    42.5800        42
    42.6000        42
    42.6200        42
    42.6400        50
    42.6600        30
    42.6800        34
    42.7000        60
    42.7200        38
    42.7400        32
    42.7600        42
    42.7800        36
    42.8000        28
    42.8200        42
    42.8400        28
    42.8600        40
    42.8800        38
    42.9000        50
    42.9200        28
    42.9400        40
    42.9600        40
    42.9800        46
    43.0000        44
    43.0200        42
    43.0400        40
    43.0600        30
    43.0800        34
    43.1000        36
    43.1200        42
    43.1400        38
    43.1600        20
    43.1800        34
    43.2000        42
    43.2200        30
    43.2400        42
    43.2600        30
    43.2800        40
    43.3000        30
    43.3200        32
    43.3400        38
    43.3600        38
    43.3800        22
    43.4000        24
    43.4200        34
    43.4400        40
    43.4600        28
    43.4800        34
    43.5000        32
    43.5200        28
    43.5400        26
    43.5600        32
    43.5800        40
    43.6000        32
    43.6200        32
    43.6400        30
    43.6600        52
    43.6800        42
    43.7000        40
    43.7200        50
    43.7400        38
    43.7600        34
    43.7800        22
    43.8000        38
    43.8200        30
    43.8400        34
    43.8600        36
    43.8800        32
    43.9000        26
    43.9200        46
    43.9400        30
    43.9600        36
    43.9800        34
    44.0000        32
    44.0200        32
    44.0400        26
    44.0600        32
    44.0800        34
    44.1000        44
    44.1200        30
    44.1400        32
    44.1600        36
    44.1800        24
    44.2000        42
    44.2200        24
    44.2400        34
    44.2600        34
    44.2800        34
    44.3000        26
    44.3200        30
    44.3400        44
    44.3600        38
    44.3800        30
    44.4000        32
    44.4200        42
    44.4400        38
    44.4600        42
    44.4800        28
    44.5000        36
    44.5200        42
    44.5400        36
    44.5600        38
    44.5800        34
    44.6000        42
    44.6200        30
    44.6400        50
    44.6600        34
    44.6800        40
    44.7000        28
    44.7200        36
    44.7400        32
    44.7600        30
    44.7800        36
    44.8000        38
    44.8200        40
    44.8400        38
    44.8600        28
    44.8800        46
    44.9000        26
    44.9200        32
    44.9400        30
    44.9600        28
    44.9800        42
    45.0000        40
    45.0200        42
    45.0400        44
    45.0600        30
    45.0800        38
    45.1000        42
    45.1200        46
    45.1400        46
    45.1600        36
    45.1800        38
    45.2000        46
    45.2200        48
    45.2400        62
    45.2600        74
    45.2800        48
    45.3000        76
    45.3200        76
    45.3400        98
    45.3600       124
    45.3800       124
    45.4000       146
    45.4200       168
    45.4400       172
    45.4600       210
    45.4800       250
    45.5000       326
    45.5200       334
    45.5400       360
    45.5600       362
    45.5800       352
    45.6000       332
    45.6200       286
    45.6400       274
    45.6600       228
    45.6800       202
    45.7000       200
    45.7200       174
    45.7400       114
    45.7600       116
    45.7800        82
    45.8000        68
    45.8200        56
    45.8400        60
    45.8600        70
    45.8800        46
    45.9000        62
    45.9200        74
    45.9400        64
    45.9600        66
    45.9800        96
    46.0000        92
    46.0200        98
    46.0400       102
    46.0600       114
    46.0800       116
    46.1000       128
    46.1200       162
    46.1400       142
    46.1600       128
    46.1800       130
    46.2000       126
    46.2200       118
    46.2400       110
    46.2600       106
    46.2800       110
    46.3000        86
    46.3200        90
    46.3400        80
    46.3600        76
    46.3800        82
    46.4000        82
    46.4200        74
    46.4400        70
    46.4600        82
    46.4800        90
    46.5000        96
    46.5200       114
    46.5400       110
    46.5600       118
    46.5800       118
    46.6000       112
    46.6200       116
    46.6400       118
    46.6600       118
    46.6800        94
    46.7000        78
    46.7200        98
    46.7400        72
    46.7600        80
    46.7800        56
    46.8000        58
    46.8200        72
    46.8400        46
    46.8600        44
    46.8800        50
    46.9000        40
    46.9200        48
    46.9400        30
    46.9600        58
    46.9800        56
    47.0000        36
    47.0200        28
    47.0400        32
    47.0600        42
    47.0800        40
    47.1000        44
    47.1200        32
    47.1400        40
    47.1600        38
    47.1800        26
    47.2000        34
    47.2200        34
    47.2400        28
    47.2600        30
    47.2800        50
    47.3000        24
    47.3200        30
    47.3400        36
    47.3600        42
    47.3800        36
    47.4000        38
    47.4200        34
    47.4400        30
    47.4600        32
    47.4800        28
    47.5000        32
    47.5200        38
    47.5400        28
    47.5600        36
    47.5800        34
    47.6000        40
    47.6200        38
    47.6400        32
    47.6600        40
    47.6800        50
    47.7000        34
    47.7200        38
    47.7400        38
    47.7600        24
    47.7800        24
    47.8000        24
    47.8200        28
    47.8400        26
    47.8600        30
    47.8800        24
    47.9000        42
    47.9200        28
    47.9400        32
    47.9600        22
    47.9800        32
    48.0000        20
    48.0200        36
    48.0400        36
    48.0600        36
    48.0800        34
    48.1000        38
    48.1200        36
    48.1400        34
    48.1600        32
    48.1800        28
    48.2000        34
    48.2200        36
    48.2400        30
    48.2600        50
    48.2800        34
    48.3000        38
    48.3200        28
    48.3400        30
    48.3600        24
    48.3800        40
    48.4000        22
    48.4200        38
    48.4400        36
    48.4600        34
    48.4800        38
    48.5000        38
    48.5200        38
    48.5400        28
    48.5600        28
    48.5800        26
    48.6000        28
    48.6200        30
    48.6400        32
    48.6600        34
    48.6800        44
    48.7000        28
    48.7200        30
    48.7400        42
    48.7600        34
    48.7800        36
    48.8000        28
    48.8200        18
    48.8400        44
    48.8600        36
    48.8800        38
    48.9000        36
    48.9200        30
    48.9400        24
    48.9600        38
    48.9800        30
    49.0000        44
    49.0200        30
    49.0400        36
    49.0600        38
    49.0800        22
    49.1000        38
    49.1200        34
    49.1400        24
    49.1600        24
    49.1800        38
    49.2000        28
    49.2200        38
    49.2400        30
    49.2600        26
    49.2800        26
    49.3000        36
    49.3200        36
    49.3400        40
    49.3600        44
    49.3800        50
    49.4000        40
    49.4200        58
    49.4400        48
    49.4600        48
    49.4800        62
    49.5000        64
    49.5200        78
    49.5400        78
    49.5600       112
    49.5800       170
    49.6000       182
    49.6200       244
    49.6400       318
    49.6600       326
    49.6800       344
    49.7000       374
    49.7200       364
    49.7400       316
    49.7600       284
    49.7800       290
    49.8000       238
    49.8200       216
    49.8400       196
    49.8600       154
    49.8800       124
    49.9000       118
    49.9200        72
    49.9400        80
    49.9600        72
    49.9800        54
    50.0000        56
    50.0200        50
    50.0400        44
    50.0600        38
    50.0800        44
    50.1000        30
    50.1200        40
    50.1400        52
    50.1600        32
    50.1800        26
    50.2000        36
    50.2200        30
    50.2400        40
    50.2600        46
    50.2800        40
    50.3000        42
    50.3200        48
    50.3400        42
    50.3600        50
    50.3800        40
    50.4000        58
    50.4200        48
    50.4400        72
    50.4600        50
    50.4800        60
    50.5000        54
    50.5200        66
    50.5400        64
    50.5600        70
    50.5800        62
    50.6000        88
    50.6200        76
    50.6400        60
    50.6600        52
    50.6800        56
    50.7000        54
    50.7200        54
    50.7400        48
    50.7600        40
    50.7800        48
    50.8000        40
    50.8200        38
    50.8400        54
    50.8600        50
    50.8800        38
    50.9000        36
    50.9200        60
    50.9400        34
    50.9600        34
    50.9800        36
    51.0000        38
    51.0200        32
    51.0400        30
    51.0600        36
    51.0800        30
    51.1000        40
    51.1200        46
    51.1400        42
    51.1600        22
    51.1800        34
    51.2000        50
    51.2200        52
    51.2400        36
    51.2600        34
    51.2800        28
    51.3000        34
    51.3200        34
    51.3400        42
    51.3600        22
    51.3800        30
    51.4000        36
    51.4200        26
    51.4400        38
    51.4600        40
    51.4800        34
    51.5000        32
    51.5200        24
    51.5400        24
    51.5600        28
    51.5800        32
    51.6000        30
    51.6200        26
    51.6400        40
    51.6600        32
    51.6800        34
    51.7000        32
    51.7200        34
    51.7400        26
    51.7600        32
    51.7800        32
    51.8000        32
    51.8200        40
    51.8400        38
    51.8600        30
    51.8800        36
    51.9000        36
    51.9200        38
    51.9400        24
    51.9600        32
    51.9800        40
    52.0000        32
    52.0200        36
    52.0400        48
    52.0600        34
    52.0800        34
    52.1000        66
    52.1200        46
    52.1400        82
    52.1600        62
    52.1800        70
    52.2000        82
    52.2200       102
    52.2400       120
    52.2600       116
    52.2800       120
    52.3000       110
    52.3200       100
    52.3400        98
    52.3600        72
    52.3800        94
    52.4000        90
    52.4200        72
    52.4400        64
    52.4600        60
    52.4800        54
    52.5000        52
    52.5200        44
    52.5400        38
    52.5600        30
    52.5800        48
    52.6000        34
    52.6200        36
    52.6400        32
    52.6600        40
    52.6800        56
    52.7000        44
    52.7200        40
    52.7400        38
    52.7600        48
    52.7800        48
    52.8000        38
    52.8200        50
    52.8400        54
    52.8600        58
    52.8800        56
    52.9000        84
    52.9200        90
    52.9400       100
    52.9600       112
    52.9800       106
    53.0000       122
    53.0200        94
    53.0400        98
    53.0600       100
    53.0800        84
    53.1000        86
    53.1200        90
    53.1400        72
    53.1600        64
    53.1800        60
    53.2000        46
    53.2200        42
    53.2400        44
    53.2600        40
    53.2800        46
    53.3000        42
    53.3200        34
    53.3400        46
    53.3600        38
    53.3800        28
    53.4000        42
    53.4200        38
    53.4400        34
    53.4600        32
    53.4800        40
    53.5000        22
    53.5200        44
    53.5400        28
    53.5600        30
    53.5800        36
    53.6000        32
    53.6200        38
    53.6400        32
    53.6600        34
    53.6800        32
    53.7000        28
    53.7200        28
    53.7400        30
    53.7600        32
    53.7800        42
    53.8000        32
    53.8200        38
    53.8400        34
    53.8600        30
    53.8800        30
    53.9000        36
    53.9200        36
    53.9400        30
    53.9600        28
    53.9800        30
    54.0000        36
    54.0200        46
    54.0400        26
    54.0600        30
    54.0800        22
    54.1000        24
    54.1200        32
    54.1400        34
    54.1600        28
    54.1800        40
    54.2000        40
    54.2200        28
    54.2400        42
    54.2600        34
    54.2800        46
    54.3000        34
    54.3200        28
    54.3400        32
    54.3600        40
    54.3800        36
    54.4000        26
    54.4200        26
    54.4400        24
    54.4600        32
    54.4800        32
    54.5000        32
    54.5200        30
    54.5400        32
    54.5600        34
    54.5800        32
    54.6000        22
    54.6200        40
    54.6400        22
    54.6600        32
    54.6800        28
    54.7000        42
    54.7200        32
    54.7400        32
    54.7600        26
    54.7800        22
    54.8000        30
    54.8200        30
    54.8400        30
    54.8600        38
    54.8800        24
    54.9000        48
    54.9200        36
    54.9400        30
    54.9600        30
    54.9800        34
    55.0000        28
    55.0200        28
    55.0400        36
    55.0600        34
    55.0800        22
    55.1000        36
    55.1200        34
    55.1400        40
    55.1600        44
    55.1800        34
    55.2000        32
    55.2200        30
    55.2400        28
    55.2600        40
    55.2800        22
    55.3000        28
    55.3200        44
    55.3400        30
    55.3600        26
    55.3800        36
    55.4000        30
    55.4200        34
    55.4400        38
    55.4600        52
    55.4800        30
    55.5000        30
    55.5200        40
    55.5400        34
    55.5600        30
    55.5800        28
    55.6000        34
    55.6200        24
    55.6400        34
    55.6600        40
    55.6800        34
    55.7000        24
    55.7200        34
    55.7400        38
    55.7600        36
    55.7800        22
    55.8000        40
    55.8200        28
    55.8400        46
    55.8600        32
    55.8800        54
    55.9000        34
    55.9200        38
    55.9400        32
    55.9600        28
    55.9800        48
    56.0000        38
    56.0200        48
    56.0400        52
    56.0600        56
    56.0800        50
    56.1000        34
    56.1200        58
    56.1400        46
    56.1600        62
    56.1800        62
    56.2000        58
    56.2200        80
    56.2400        70
    56.2600       106
    56.2800        82
    56.3000        80
    56.3200        84
    56.3400        76
    56.3600        78
    56.3800        64
    56.4000        52
    56.4200        54
    56.4400        50
    56.4600        58
    56.4800        60
    56.5000        52
    56.5200        46
    56.5400        48
    56.5600        58
    56.5800        44
    56.6000        38
    56.6200        42
    56.6400        44
    56.6600        42
    56.6800        58
    56.7000        52
    56.7200        64
    56.7400        60
    56.7600        72
    56.7800        80
    56.8000        72
    56.8200        60
    56.8400        98
    56.8600        74
    56.8800        80
    56.9000        94
    56.9200       100
    56.9400        86
    56.9600        72
    56.9800        72
    57.0000        62
    57.0200        78
    57.0400        68
    57.0600        60
    57.0800        50
    57.1000        54
    57.1200        38
    57.1400        32
    57.1600        58
    57.1800        32
    57.2000        42
    57.2200        32
    57.2400        36
    57.2600        40
    57.2800        44
    57.3000        36
    57.3200        32
    57.3400        42
    57.3600        38
    57.3800        28
    57.4000        24
    57.4200        28
    57.4400        40
    57.4600        32
    57.4800        36
    57.5000        36
    57.5200        28
    57.5400        36
    57.5600        34
    57.5800        28
    57.6000        26
    57.6200        28
    57.6400        28
    57.6600        36
    57.6800        44
    57.7000        46
    57.7200        32
    57.7400        28
    57.7600        40
    57.7800        32
    57.8000        32
    57.8200        22
    57.8400        44
    57.8600        24
    57.8800        46
    57.9000        38
    57.9200        44
    57.9400        30
    57.9600        32
    57.9800        28
    58.0000        38
    58.0200        40
    58.0400        40
    58.0600        42
    58.0800        34
    58.1000        30
    58.1200        46
    58.1400        42
    58.1600        30
    58.1800        46
    58.2000        66
    58.2200        46
    58.2400        64
    58.2600        74
    58.2800        88
    58.3000        94
    58.3200        82
    58.3400        98
    58.3600        98
    58.3800        96
    58.4000        64
    58.4200        58
    58.4400        76
    58.4600        56
    58.4800        68
    58.5000        66
    58.5200        62
    58.5400        52
    58.5600        72
    58.5800        62
    58.6000        70
    58.6200        66
    58.6400        60
    58.6600        76
    58.6800        58
    58.7000        50
    58.7200        70
    58.7400        62
    58.7600        64
    58.7800        50
    58.8000        48
    58.8200        44
    58.8400        42
    58.8600        54
    58.8800        46
    58.9000        30
    58.9200        46
    58.9400        50
    58.9600        42
    58.9800        68
    59.0000        64
    59.0200        62
    59.0400        72
    59.0600        82
    59.0800        74
    59.1000        74
    59.1200        78
    59.1400        86
    59.1600        94
    59.1800        70
    59.2000        50
    59.2200        96
    59.2400        74
    59.2600        82
    59.2800        78
    59.3000        90
    59.3200       108
    59.3400        90
    59.3600        86
    59.3800        92
    59.4000       104
    59.4200       144
    59.4400       150
    59.4600       130
    59.4800       156
    59.5000       158
    59.5200       170
    59.5400       160
    59.5600       148
    59.5800       116
    59.6000       128
    59.6200       138
    59.6400       116
    59.6600       102
    59.6800        94
    59.7000        98
    59.7200       104
    59.7400        92
    59.7600        66
    59.7800        60
    59.8000        60
    59.8200        58
    59.8400        46
    59.8600        56
    59.8800        50
    59.9000        58
    59.9200        46
    59.9400        68
    59.9600        58
    59.9800        60
    60.0000        64
    60.0200        82
    60.0400        92
    60.0600        94
    60.0800        82
    60.1000       124
    60.1200       120
    60.1400       126
    60.1600       140
    60.1800       134
    60.2000       140
    60.2200       146
    60.2400       168
    60.2600       174
    60.2800       166
    60.3000       174
    60.3200       168
    60.3400       150
    60.3600       168
    60.3800       174
    60.4000       150
    60.4200       148
    60.4400       130
    60.4600       104
    60.4800       128
    60.5000       102
    60.5200        86
    60.5400        76
    60.5600        74
    60.5800        66
    60.6000        76
    60.6200        50
    60.6400        44
    60.6600        44
    60.6800        44
    60.7000        48
    60.7200        40
    60.7400        44
    60.7600        34
    60.7800        38
    60.8000        44
    60.8200        36
    60.8400        48
    60.8600        34
    60.8800        40
    60.9000        42
    60.9200        38
    60.9400        36
    60.9600        30
    60.9800        40
    61.0000        30
    61.0200        32
    61.0400        30
    61.0600        34
    61.0800        32
    61.1000        40
    61.1200        40
    61.1400        34
    61.1600        28
    61.1800        48
    61.2000        30
    61.2200        28
    61.2400        22
    61.2600        42
    61.2800        28
    61.3000        34
    61.3200        32
    61.3400        36
    61.3600        26
    61.3800        30
    61.4000        40
    61.4200        32
    61.4400        32
    61.4600        28
    61.4800        26
    61.5000        30
    61.5200        38
    61.5400        28
    61.5600        42
    61.5800        32
    61.6000        28
    61.6200        24
    61.6400        34
    61.6600        30
    61.6800        32
    61.7000        34
    61.7200        24
    61.7400        28
    61.7600        30
    61.7800        42
    61.8000        40
    61.8200        32
    61.8400        38
    61.8600        38
    61.8800        38
    61.9000        42
    61.9200        34
    61.9400        34
    61.9600        42
    61.9800        42
    62.0000        52
    62.0200        54
    62.0400        60
    62.0600        76
    62.0800        72
    62.1000        88
    62.1200        80
    62.1400        86
    62.1600        70
    62.1800        74
    62.2000        80
    62.2200        74
    62.2400        66
    62.2600        66
    62.2800        62
    62.3000        58
    62.3200        66
    62.3400        58
    62.3600        38
    62.3800        48
    62.4000        46
    62.4200        50
    62.4400        42
    62.4600        44
    62.4800        48
    62.5000        28
    62.5200        26
    62.5400        34
    62.5600        34
    62.5800        32
    62.6000        38
    62.6200        42
    62.6400        32
    62.6600        26
    62.6800        28
    62.7000        18
    62.7200        26
    62.7400        26
    62.7600        28
    62.7800        30
    62.8000        44
    62.8200        36
    62.8400        30
    62.8600        32
    62.8800        50
    62.9000        38
    62.9200        40
    62.9400        24
    62.9600        32
    62.9800        32
    63.0000        42
    63.0200        32
    63.0400        32
    63.0600        24
    63.0800        28
    63.1000        32
    63.1200        34
    63.1400        44
    63.1600        22
    63.1800        36
    63.2000        20
    63.2200        30
    63.2400        30
    63.2600        36
    63.2800        30
    63.3000        32
    63.3200        26
    63.3400        26
    63.3600        22
    63.3800        38
    63.4000        40
    63.4200        28
    63.4400        28
    63.4600        28
    63.4800        34
    63.5000        34
    63.5200        26
    63.5400        36
    63.5600        24
    63.5800        30
    63.6000        34
    63.6200        32
    63.6400        30
    63.6600        22
    63.6800        18
    63.7000        32
    63.7200        40
    63.7400        22
    63.7600        30
    63.7800        32
    63.8000        24
    63.8200        34
    63.8400        18
    63.8600        46
    63.8800        34
    63.9000        46
    63.9200        48
    63.9400        30
    63.9600        46
    63.9800        28
    64.0000        46
    64.0200        42
    64.0400        60
    64.0600        46
    64.0800        62
    64.1000        54
    64.1200        48
    64.1400        54
    64.1600        48
    64.1800        46
    64.2000        44
    64.2200        48
    64.2400        52
    64.2600        56
    64.2800        70
    64.3000        52
    64.3200        66
    64.3400        68
    64.3600        72
    64.3800        88
    64.4000        84
    64.4200        78
    64.4400        64
    64.4600        70
    64.4800        68
    64.5000        66
    64.5200        94
    64.5400        50
    64.5600        66
    64.5800        60
    64.6000        80
    64.6200        64
    64.6400        72
    64.6600        78
    64.6800        68
    64.7000        76
    64.7200        86
    64.7400        88
    64.7600        62
    64.7800        76
    64.8000        90
    64.8200        82
    64.8400        90
    64.8600       108
    64.8800        84
    64.9000        90
    64.9200        70
    64.9400        82
    64.9600        50
    64.9800        70
    65.0000        70
