/////////////////////////////////////////////////////////////////////////////////
/// Profile Data Ascii Dump (XRD)                                             ///
/////////////////////////////////////////////////////////////////////////////////

  Group     : Swayze
  Data      : WS219
  File Name : WS219.RAW

# Profile Datafile
          comment             = Goethite 
          date & time         = 08-03-14 06:24:56 

# Measurement Condition
    X-ray tube
          target              = Cu 
          voltage             = 40.0 (kV)
          current             = 30.0 (mA)
    Slits
          divergence slit     = 2.00000 (deg) 
          scatter slit        = 2.00000 (deg) 
          receiving slit      = 0.15000 (mm)  
    Scanning
          drive axis          = Theta-2Theta 
          scan range          =    4.000 -   65.000 
          scan mode           = Continuous Scan 
          scan speed          =   2.0000 (deg/min) 
          sampling pitch      =   0.0200 (deg) 
          preset time         =   0.60 (sec) 

# Data      [ Total No. = 3051 ]
  <2Theta>   <   I   >
     4.0000       182
     4.0200       210
     4.0400       190
     4.0600       202
     4.0800       224
     4.1000       180
     4.1200       218
     4.1400       180
     4.1600       200
     4.1800       228
     4.2000       200
     4.2200       198
     4.2400       200
     4.2600       182
     4.2800       184
     4.3000       172
     4.3200       226
     4.3400       192
     4.3600       192
     4.3800       170
     4.4000       180
     4.4200       166
     4.4400       204
     4.4600       166
     4.4800       176
     4.5000       170
     4.5200       168
     4.5400       204
     4.5600       182
     4.5800       188
     4.6000       180
     4.6200       180
     4.6400       170
     4.6600       158
     4.6800       174
     4.7000       174
     4.7200       170
     4.7400       176
     4.7600       210
     4.7800       160
     4.8000       158
     4.8200       162
     4.8400       164
     4.8600       180
     4.8800       168
     4.9000       178
     4.9200       164
     4.9400       166
     4.9600       192
     4.9800       176
     5.0000       176
     5.0200       178
     5.0400       150
     5.0600       170
     5.0800       180
     5.1000       166
     5.1200       184
     5.1400       168
     5.1600       200
     5.1800       172
     5.2000       170
     5.2200       190
     5.2400       142
     5.2600       158
     5.2800       158
     5.3000       192
     5.3200       166
     5.3400       178
     5.3600       166
     5.3800       180
     5.4000       178
     5.4200       178
     5.4400       184
     5.4600       176
     5.4800       176
     5.5000       180
     5.5200       150
     5.5400       160
     5.5600       182
     5.5800       152
     5.6000       174
     5.6200       152
     5.6400       160
     5.6600       160
     5.6800       176
     5.7000       182
     5.7200       170
     5.7400       178
     5.7600       168
     5.7800       162
     5.8000       156
     5.8200       166
     5.8400       144
     5.8600       182
     5.8800       152
     5.9000       154
     5.9200       146
     5.9400       168
     5.9600       148
     5.9800       178
     6.0000       170
     6.0200       184
     6.0400       194
     6.0600       166
     6.0800       160
     6.1000       140
     6.1200       164
     6.1400       176
     6.1600       172
     6.1800       166
     6.2000       170
     6.2200       150
     6.2400       138
     6.2600       160
     6.2800       144
     6.3000       160
     6.3200       168
     6.3400       168
     6.3600       152
     6.3800       162
     6.4000       146
     6.4200       176
     6.4400       168
     6.4600       178
     6.4800       152
     6.5000       152
     6.5200       136
     6.5400       148
     6.5600       180
     6.5800       128
     6.6000       134
     6.6200       154
     6.6400       132
     6.6600       122
     6.6800       162
     6.7000       122
     6.7200       150
     6.7400       134
     6.7600       128
     6.7800       126
     6.8000       128
     6.8200       138
     6.8400       112
     6.8600       134
     6.8800       132
     6.9000       122
     6.9200       108
     6.9400       102
     6.9600       136
     6.9800       114
     7.0000       122
     7.0200       136
     7.0400       132
     7.0600       126
     7.0800       120
     7.1000       110
     7.1200       118
     7.1400       140
     7.1600       134
     7.1800       128
     7.2000       132
     7.2200       114
     7.2400       118
     7.2600       114
     7.2800       106
     7.3000       144
     7.3200       136
     7.3400       112
     7.3600       102
     7.3800       124
     7.4000       126
     7.4200       140
     7.4400       120
     7.4600       116
     7.4800       122
     7.5000       126
     7.5200       120
     7.5400       114
     7.5600       120
     7.5800       106
     7.6000       120
     7.6200       116
     7.6400       130
     7.6600       118
     7.6800       122
     7.7000       124
     7.7200       116
     7.7400       124
     7.7600       126
     7.7800       122
     7.8000       124
     7.8200       140
     7.8400       124
     7.8600        92
     7.8800       134
     7.9000       132
     7.9200       114
     7.9400       114
     7.9600       108
     7.9800       108
     8.0000       112
     8.0200       110
     8.0400       112
     8.0600       118
     8.0800       124
     8.1000        96
     8.1200       108
     8.1400       128
     8.1600       126
     8.1800       114
     8.2000       128
     8.2200       110
     8.2400       118
     8.2600       112
     8.2800       126
     8.3000       136
     8.3200       124
     8.3400       114
     8.3600       114
     8.3800       116
     8.4000       140
     8.4200       112
     8.4400       116
     8.4600       128
     8.4800       114
     8.5000       120
     8.5200       116
     8.5400       136
     8.5600       104
     8.5800       120
     8.6000       120
     8.6200       138
     8.6400       140
     8.6600       116
     8.6800        94
     8.7000       126
     8.7200       120
     8.7400       140
     8.7600       106
     8.7800       126
     8.8000       136
     8.8200       120
     8.8400       106
     8.8600       120
     8.8800       134
     8.9000       118
     8.9200       120
     8.9400       118
     8.9600       104
     8.9800       134
     9.0000       114
     9.0200       108
     9.0400       104
     9.0600       116
     9.0800       124
     9.1000       122
     9.1200       138
     9.1400       116
     9.1600       122
     9.1800       110
     9.2000       116
     9.2200       100
     9.2400       110
     9.2600       126
     9.2800       116
     9.3000       138
     9.3200       112
     9.3400       130
     9.3600        92
     9.3800       124
     9.4000       124
     9.4200       128
     9.4400       124
     9.4600       110
     9.4800       112
     9.5000       124
     9.5200       118
     9.5400       118
     9.5600       124
     9.5800       110
     9.6000       156
     9.6200       110
     9.6400       108
     9.6600       130
     9.6800       120
     9.7000       112
     9.7200       122
     9.7400       116
     9.7600       118
     9.7800       134
     9.8000       104
     9.8200       112
     9.8400       112
     9.8600       112
     9.8800       118
     9.9000        92
     9.9200        92
     9.9400       122
     9.9600       126
     9.9800       102
    10.0000       112
    10.0200       110
    10.0400        96
    10.0600        82
    10.0800       116
    10.1000       112
    10.1200       112
    10.1400        90
    10.1600       108
    10.1800       104
    10.2000        94
    10.2200        98
    10.2400       106
    10.2600        88
    10.2800       116
    10.3000        94
    10.3200       120
    10.3400       100
    10.3600       130
    10.3800       104
    10.4000       120
    10.4200       106
    10.4400        84
    10.4600       114
    10.4800        98
    10.5000        98
    10.5200       122
    10.5400       110
    10.5600       100
    10.5800       124
    10.6000       112
    10.6200       126
    10.6400       114
    10.6600       100
    10.6800       102
    10.7000        94
    10.7200        92
    10.7400       108
    10.7600        92
    10.7800        86
    10.8000        86
    10.8200        88
    10.8400       106
    10.8600       116
    10.8800        94
    10.9000        98
    10.9200       104
    10.9400       100
    10.9600        70
    10.9800        90
    11.0000        80
    11.0200        96
    11.0400       104
    11.0600       112
    11.0800        92
    11.1000        80
    11.1200       104
    11.1400       100
    11.1600        82
    11.1800        92
    11.2000        86
    11.2200       100
    11.2400       104
    11.2600       102
    11.2800        92
    11.3000        84
    11.3200        96
    11.3400        92
    11.3600        88
    11.3800        90
    11.4000       100
    11.4200        86
    11.4400       100
    11.4600        80
    11.4800        82
    11.5000       100
    11.5200        84
    11.5400        88
    11.5600        82
    11.5800        72
    11.6000        82
    11.6200        88
    11.6400       100
    11.6600        84
    11.6800        90
    11.7000        78
    11.7200       110
    11.7400        92
    11.7600        94
    11.7800        98
    11.8000        70
    11.8200        94
    11.8400        80
    11.8600        96
    11.8800        88
    11.9000        96
    11.9200       100
    11.9400        74
    11.9600        72
    11.9800       100
    12.0000        88
    12.0200        88
    12.0400        96
    12.0600       106
    12.0800        86
    12.1000        88
    12.1200        82
    12.1400        88
    12.1600        90
    12.1800       106
    12.2000        96
    12.2200       102
    12.2400        98
    12.2600        90
    12.2800        88
    12.3000        86
    12.3200        98
    12.3400        88
    12.3600        98
    12.3800        80
    12.4000        82
    12.4200        70
    12.4400        78
    12.4600        80
    12.4800        72
    12.5000        74
    12.5200        92
    12.5400        98
    12.5600        70
    12.5800        90
    12.6000        98
    12.6200        90
    12.6400        76
    12.6600        70
    12.6800        76
    12.7000        84
    12.7200        82
    12.7400        82
    12.7600        62
    12.7800        74
    12.8000        80
    12.8200        80
    12.8400        76
    12.8600        80
    12.8800        82
    12.9000       112
    12.9200        68
    12.9400        86
    12.9600        68
    12.9800        70
    13.0000        68
    13.0200        86
    13.0400        90
    13.0600        94
    13.0800        90
    13.1000        86
    13.1200        74
    13.1400        82
    13.1600        80
    13.1800        74
    13.2000        66
    13.2200        80
    13.2400        86
    13.2600        88
    13.2800        64
    13.3000        78
    13.3200        78
    13.3400        70
    13.3600        82
    13.3800        72
    13.4000        78
    13.4200        74
    13.4400        78
    13.4600        60
    13.4800        70
    13.5000        82
    13.5200        70
    13.5400        72
    13.5600        78
    13.5800        86
    13.6000        80
    13.6200        86
    13.6400       104
    13.6600        90
    13.6800        76
    13.7000        80
    13.7200        96
    13.7400       106
    13.7600       108
    13.7800       110
    13.8000        88
    13.8200        98
    13.8400       120
    13.8600       124
    13.8800       106
    13.9000       120
    13.9200       138
    13.9400       140
    13.9600       140
    13.9800       176
    14.0000       182
    14.0200       190
    14.0400       204
    14.0600       196
    14.0800       182
    14.1000       142
    14.1200       128
    14.1400       100
    14.1600       120
    14.1800       102
    14.2000       100
    14.2200        70
    14.2400        80
    14.2600        72
    14.2800        74
    14.3000        72
    14.3200        92
    14.3400        74
    14.3600        82
    14.3800        78
    14.4000        70
    14.4200        70
    14.4400        72
    14.4600        74
    14.4800        84
    14.5000        68
    14.5200        74
    14.5400        80
    14.5600        84
    14.5800        78
    14.6000        72
    14.6200        64
    14.6400        74
    14.6600        56
    14.6800        66
    14.7000        80
    14.7200        78
    14.7400        68
    14.7600        66
    14.7800        62
    14.8000        62
    14.8200        66
    14.8400        66
    14.8600        64
    14.8800        76
    14.9000        56
    14.9200        70
    14.9400        56
    14.9600        78
    14.9800        64
    15.0000        64
    15.0200        54
    15.0400        62
    15.0600        76
    15.0800        54
    15.1000        64
    15.1200        88
    15.1400        56
    15.1600        54
    15.1800        54
    15.2000        62
    15.2200        88
    15.2400        48
    15.2600        68
    15.2800        62
    15.3000        68
    15.3200        64
    15.3400        74
    15.3600        58
    15.3800        50
    15.4000        68
    15.4200        76
    15.4400        80
    15.4600        72
    15.4800        60
    15.5000        62
    15.5200        48
    15.5400        50
    15.5600        80
    15.5800        52
    15.6000        48
    15.6200        50
    15.6400        64
    15.6600        72
    15.6800        58
    15.7000        60
    15.7200        64
    15.7400        54
    15.7600        60
    15.7800        56
    15.8000        68
    15.8200        60
    15.8400        64
    15.8600        62
    15.8800        44
    15.9000        64
    15.9200        60
    15.9400        56
    15.9600        68
    15.9800        62
    16.0000        58
    16.0200        66
    16.0400        60
    16.0600        54
    16.0800        82
    16.1000        52
    16.1200        64
    16.1400        68
    16.1600        84
    16.1800        52
    16.2000        62
    16.2200        54
    16.2400        48
    16.2600        68
    16.2800        62
    16.3000        48
    16.3200        58
    16.3400        78
    16.3600        58
    16.3800        60
    16.4000        50
    16.4200        72
    16.4400        60
    16.4600        54
    16.4800        70
    16.5000        48
    16.5200        76
    16.5400        70
    16.5600        70
    16.5800        58
    16.6000        60
    16.6200        64
    16.6400        60
    16.6600        62
    16.6800        76
    16.7000        62
    16.7200        60
    16.7400        64
    16.7600        56
    16.7800        64
    16.8000        50
    16.8200        62
    16.8400        58
    16.8600        66
    16.8800        62
    16.9000        64
    16.9200        58
    16.9400        56
    16.9600        58
    16.9800        52
    17.0000        70
    17.0200        56
    17.0400        52
    17.0600        64
    17.0800        70
    17.1000        66
    17.1200        56
    17.1400        56
    17.1600        68
    17.1800        72
    17.2000        72
    17.2200        56
    17.2400        54
    17.2600        60
    17.2800        66
    17.3000        66
    17.3200        66
    17.3400        58
    17.3600        68
    17.3800        60
    17.4000        52
    17.4200        64
    17.4400        46
    17.4600        58
    17.4800        68
    17.5000        72
    17.5200        64
    17.5400        68
    17.5600        74
    17.5800        64
    17.6000        84
    17.6200        74
    17.6400        66
    17.6600        82
    17.6800        70
    17.7000        84
    17.7200        90
    17.7400        78
    17.7600        72
    17.7800        80
    17.8000        76
    17.8200        64
    17.8400        64
    17.8600        62
    17.8800        62
    17.9000        54
    17.9200        70
    17.9400        68
    17.9600        60
    17.9800        70
    18.0000        68
    18.0200        62
    18.0400        66
    18.0600        52
    18.0800        60
    18.1000        68
    18.1200        56
    18.1400        58
    18.1600        54
    18.1800        48
    18.2000        66
    18.2200        48
    18.2400        52
    18.2600        52
    18.2800        58
    18.3000        60
    18.3200        62
    18.3400        62
    18.3600        50
    18.3800        66
    18.4000        70
    18.4200        54
    18.4400        58
    18.4600        70
    18.4800        68
    18.5000        56
    18.5200        44
    18.5400        64
    18.5600        68
    18.5800        66
    18.6000        64
    18.6200        64
    18.6400        62
    18.6600        72
    18.6800        56
    18.7000        56
    18.7200        58
    18.7400        54
    18.7600        52
    18.7800        60
    18.8000        64
    18.8200        66
    18.8400        74
    18.8600        66
    18.8800        48
    18.9000        50
    18.9200        54
    18.9400        52
    18.9600        60
    18.9800        58
    19.0000        62
    19.0200        62
    19.0400        60
    19.0600        74
    19.0800        70
    19.1000        72
    19.1200        50
    19.1400        64
    19.1600        54
    19.1800        46
    19.2000        62
    19.2200        52
    19.2400        64
    19.2600        50
    19.2800        46
    19.3000        66
    19.3200        62
    19.3400        64
    19.3600        56
    19.3800        62
    19.4000        62
    19.4200        58
    19.4400        60
    19.4600        44
    19.4800        50
    19.5000        84
    19.5200        48
    19.5400        58
    19.5600        76
    19.5800        70
    19.6000        80
    19.6200        68
    19.6400        60
    19.6600        72
    19.6800        56
    19.7000        50
    19.7200        64
    19.7400        76
    19.7600        76
    19.7800        64
    19.8000        88
    19.8200        68
    19.8400        68
    19.8600        70
    19.8800        72
    19.9000        54
    19.9200        62
    19.9400        66
    19.9600        54
    19.9800        74
    20.0000        72
    20.0200        62
    20.0400        50
    20.0600        70
    20.0800        66
    20.1000        54
    20.1200        60
    20.1400        70
    20.1600        58
    20.1800        78
    20.2000        72
    20.2200        72
    20.2400        64
    20.2600        76
    20.2800        78
    20.3000        68
    20.3200        58
    20.3400        74
    20.3600        84
    20.3800        66
    20.4000        82
    20.4200        76
    20.4400        86
    20.4600        80
    20.4800        84
    20.5000        76
    20.5200        84
    20.5400        98
    20.5600        82
    20.5800       100
    20.6000       100
    20.6200       110
    20.6400       120
    20.6600       164
    20.6800       136
    20.7000       174
    20.7200       228
    20.7400       308
    20.7600       324
    20.7800       294
    20.8000       290
    20.8200       268
    20.8400       178
    20.8600       140
    20.8800       144
    20.9000       128
    20.9200       140
    20.9400       124
    20.9600       136
    20.9800       138
    21.0000       148
    21.0200       176
    21.0400       182
    21.0600       156
    21.0800       186
    21.1000       184
    21.1200       204
    21.1400       182
    21.1600       166
    21.1800       178
    21.2000       156
    21.2200       150
    21.2400       142
    21.2600       126
    21.2800       110
    21.3000       122
    21.3200       110
    21.3400       104
    21.3600        90
    21.3800        98
    21.4000        98
    21.4200        96
    21.4400        94
    21.4600        78
    21.4800        78
    21.5000        72
    21.5200        90
    21.5400        74
    21.5600        82
    21.5800        76
    21.6000        78
    21.6200        72
    21.6400        54
    21.6600        90
    21.6800        56
    21.7000        74
    21.7200        52
    21.7400        70
    21.7600        80
    21.7800        70
    21.8000        56
    21.8200        68
    21.8400        60
    21.8600        54
    21.8800        68
    21.9000        58
    21.9200        60
    21.9400        68
    21.9600        60
    21.9800        64
    22.0000        58
    22.0200        50
    22.0400        60
    22.0600        54
    22.0800        58
    22.1000        50
    22.1200        54
    22.1400        54
    22.1600        48
    22.1800        52
    22.2000        46
    22.2200        42
    22.2400        58
    22.2600        70
    22.2800        50
    22.3000        50
    22.3200        50
    22.3400        48
    22.3600        66
    22.3800        54
    22.4000        64
    22.4200        62
    22.4400        66
    22.4600        56
    22.4800        52
    22.5000        58
    22.5200        50
    22.5400        62
    22.5600        58
    22.5800        56
    22.6000        50
    22.6200        58
    22.6400        38
    22.6600        58
    22.6800        56
    22.7000        62
    22.7200        50
    22.7400        58
    22.7600        60
    22.7800        62
    22.8000        64
    22.8200        42
    22.8400        56
    22.8600        58
    22.8800        44
    22.9000        40
    22.9200        54
    22.9400        46
    22.9600        62
    22.9800        58
    23.0000        48
    23.0200        60
    23.0400        60
    23.0600        58
    23.0800        62
    23.1000        58
    23.1200        66
    23.1400        64
    23.1600        66
    23.1800        48
    23.2000        56
    23.2200        42
    23.2400        62
    23.2600        40
    23.2800        64
    23.3000        46
    23.3200        74
    23.3400        64
    23.3600        36
    23.3800        56
    23.4000        40
    23.4200        50
    23.4400        44
    23.4600        28
    23.4800        46
    23.5000        42
    23.5200        50
    23.5400        54
    23.5600        52
    23.5800        40
    23.6000        60
    23.6200        34
    23.6400        56
    23.6600        48
    23.6800        46
    23.7000        52
    23.7200        44
    23.7400        50
    23.7600        52
    23.7800        54
    23.8000        42
    23.8200        60
    23.8400        54
    23.8600        48
    23.8800        60
    23.9000        56
    23.9200        54
    23.9400        50
    23.9600        50
    23.9800        44
    24.0000        40
    24.0200        62
    24.0400        38
    24.0600        54
    24.0800        46
    24.1000        50
    24.1200        48
    24.1400        46
    24.1600        66
    24.1800        42
    24.2000        56
    24.2200        46
    24.2400        64
    24.2600        50
    24.2800        50
    24.3000        50
    24.3200        48
    24.3400        44
    24.3600        60
    24.3800        52
    24.4000        56
    24.4200        40
    24.4400        58
    24.4600        60
    24.4800        54
    24.5000        46
    24.5200        56
    24.5400        44
    24.5600        44
    24.5800        66
    24.6000        46
    24.6200        68
    24.6400        56
    24.6600        40
    24.6800        58
    24.7000        58
    24.7200        60
    24.7400        58
    24.7600        60
    24.7800        64
    24.8000        64
    24.8200        68
    24.8400        64
    24.8600        60
    24.8800        58
    24.9000        56
    24.9200        62
    24.9400        68
    24.9600        64
    24.9800        54
    25.0000        44
    25.0200        44
    25.0400        56
    25.0600        50
    25.0800        36
    25.1000        50
    25.1200        54
    25.1400        48
    25.1600        62
    25.1800        72
    25.2000        56
    25.2200        56
    25.2400        40
    25.2600        50
    25.2800        60
    25.3000        64
    25.3200        66
    25.3400        54
    25.3600        54
    25.3800        42
    25.4000        52
    25.4200        60
    25.4400        58
    25.4600        56
    25.4800        60
    25.5000        52
    25.5200        54
    25.5400        50
    25.5600        46
    25.5800        50
    25.6000        58
    25.6200        56
    25.6400        46
    25.6600        46
    25.6800        58
    25.7000        46
    25.7200        46
    25.7400        54
    25.7600        62
    25.7800        56
    25.8000        44
    25.8200        46
    25.8400        50
    25.8600        60
    25.8800        54
    25.9000        48
    25.9200        44
    25.9400        66
    25.9600        48
    25.9800        76
    26.0000        58
    26.0200        76
    26.0400        58
    26.0600        64
    26.0800        66
    26.1000        72
    26.1200        72
    26.1400        76
    26.1600        86
    26.1800        80
    26.2000        80
    26.2200        88
    26.2400        84
    26.2600        90
    26.2800        90
    26.3000       102
    26.3200       118
    26.3400       150
    26.3600       214
    26.3800       296
    26.4000       358
    26.4200       422
    26.4400       414
    26.4600       530
    26.4800       590
    26.5000       644
    26.5200       746
    26.5400       818
    26.5600       758
    26.5800       644
    26.6000       552
    26.6200       422
    26.6400       330
    26.6600       234
    26.6800       178
    26.7000       164
    26.7200       128
    26.7400       122
    26.7600       120
    26.7800       110
    26.8000       124
    26.8200       120
    26.8400       156
    26.8600       142
    26.8800       182
    26.9000       180
    26.9200       186
    26.9400       182
    26.9600       188
    26.9800       206
    27.0000       174
    27.0200       152
    27.0400       130
    27.0600       112
    27.0800        82
    27.1000        88
    27.1200        84
    27.1400        60
    27.1600        66
    27.1800        48
    27.2000        50
    27.2200        56
    27.2400        58
    27.2600        68
    27.2800        46
    27.3000        48
    27.3200        36
    27.3400        54
    27.3600        54
    27.3800        48
    27.4000        58
    27.4200        48
    27.4400        46
    27.4600        36
    27.4800        38
    27.5000        52
    27.5200        54
    27.5400        50
    27.5600        40
    27.5800        46
    27.6000        54
    27.6200        46
    27.6400        36
    27.6600        52
    27.6800        38
    27.7000        46
    27.7200        56
    27.7400        46
    27.7600        30
    27.7800        28
    27.8000        38
    27.8200        60
    27.8400        38
    27.8600        42
    27.8800        50
    27.9000        30
    27.9200        40
    27.9400        36
    27.9600        54
    27.9800        32
    28.0000        48
    28.0200        34
    28.0400        46
    28.0600        40
    28.0800        36
    28.1000        44
    28.1200        40
    28.1400        44
    28.1600        36
    28.1800        36
    28.2000        50
    28.2200        42
    28.2400        46
    28.2600        34
    28.2800        34
    28.3000        54
    28.3200        54
    28.3400        44
    28.3600        36
    28.3800        50
    28.4000        48
    28.4200        40
    28.4400        48
    28.4600        54
    28.4800        46
    28.5000        46
    28.5200        36
    28.5400        38
    28.5600        48
    28.5800        42
    28.6000        32
    28.6200        50
    28.6400        48
    28.6600        38
    28.6800        50
    28.7000        54
    28.7200        40
    28.7400        32
    28.7600        48
    28.7800        40
    28.8000        32
    28.8200        34
    28.8400        36
    28.8600        48
    28.8800        46
    28.9000        36
    28.9200        36
    28.9400        38
    28.9600        40
    28.9800        32
    29.0000        42
    29.0200        38
    29.0400        48
    29.0600        30
    29.0800        36
    29.1000        50
    29.1200        30
    29.1400        48
    29.1600        48
    29.1800        36
    29.2000        44
    29.2200        32
    29.2400        46
    29.2600        32
    29.2800        38
    29.3000        36
    29.3200        50
    29.3400        36
    29.3600        46
    29.3800        32
    29.4000        36
    29.4200        44
    29.4400        40
    29.4600        46
    29.4800        48
    29.5000        46
    29.5200        60
    29.5400        50
    29.5600        40
    29.5800        38
    29.6000        40
    29.6200        40
    29.6400        42
    29.6600        52
    29.6800        40
    29.7000        44
    29.7200        50
    29.7400        54
    29.7600        38
    29.7800        38
    29.8000        56
    29.8200        54
    29.8400        42
    29.8600        48
    29.8800        58
    29.9000        48
    29.9200        52
    29.9400        52
    29.9600        32
    29.9800        56
    30.0000        34
    30.0200        38
    30.0400        46
    30.0600        36
    30.0800        36
    30.1000        50
    30.1200        46
    30.1400        40
    30.1600        40
    30.1800        28
    30.2000        42
    30.2200        34
    30.2400        44
    30.2600        40
    30.2800        54
    30.3000        40
    30.3200        34
    30.3400        38
    30.3600        48
    30.3800        40
    30.4000        28
    30.4200        42
    30.4400        32
    30.4600        50
    30.4800        42
    30.5000        32
    30.5200        38
    30.5400        36
    30.5600        26
    30.5800        44
    30.6000        48
    30.6200        50
    30.6400        36
    30.6600        40
    30.6800        40
    30.7000        36
    30.7200        32
    30.7400        42
    30.7600        36
    30.7800        38
    30.8000        38
    30.8200        38
    30.8400        36
    30.8600        40
    30.8800        38
    30.9000        44
    30.9200        40
    30.9400        40
    30.9600        44
    30.9800        46
    31.0000        46
    31.0200        40
    31.0400        40
    31.0600        46
    31.0800        40
    31.1000        42
    31.1200        44
    31.1400        40
    31.1600        46
    31.1800        44
    31.2000        30
    31.2200        40
    31.2400        42
    31.2600        50
    31.2800        36
    31.3000        42
    31.3200        44
    31.3400        52
    31.3600        40
    31.3800        50
    31.4000        38
    31.4200        28
    31.4400        42
    31.4600        38
    31.4800        42
    31.5000        44
    31.5200        38
    31.5400        52
    31.5600        34
    31.5800        44
    31.6000        40
    31.6200        38
    31.6400        28
    31.6600        54
    31.6800        44
    31.7000        40
    31.7200        44
    31.7400        30
    31.7600        46
    31.7800        44
    31.8000        40
    31.8200        48
    31.8400        36
    31.8600        34
    31.8800        40
    31.9000        44
    31.9200        44
    31.9400        38
    31.9600        40
    31.9800        42
    32.0000        38
    32.0200        36
    32.0400        34
    32.0600        52
    32.0800        54
    32.1000        52
    32.1200        50
    32.1400        46
    32.1600        44
    32.1800        34
    32.2000        50
    32.2200        36
    32.2400        42
    32.2600        32
    32.2800        58
    32.3000        48
    32.3200        56
    32.3400        44
    32.3600        44
    32.3800        46
    32.4000        48
    32.4200        50
    32.4400        44
    32.4600        54
    32.4800        54
    32.5000        46
    32.5200        54
    32.5400        42
    32.5600        36
    32.5800        50
    32.6000        36
    32.6200        42
    32.6400        52
    32.6600        48
    32.6800        64
    32.7000        60
    32.7200        54
    32.7400        42
    32.7600        54
    32.7800        50
    32.8000        84
    32.8200        64
    32.8400        56
    32.8600        62
    32.8800        74
    32.9000        64
    32.9200        76
    32.9400        72
    32.9600        78
    32.9800        80
    33.0000        94
    33.0200       114
    33.0400        92
    33.0600       110
    33.0800        92
    33.1000        92
    33.1200       100
    33.1400       130
    33.1600       124
    33.1800       128
    33.2000       102
    33.2200       104
    33.2400        98
    33.2600        70
    33.2800       100
    33.3000        78
    33.3200        80
    33.3400        70
    33.3600        78
    33.3800        64
    33.4000        66
    33.4200        56
    33.4400        54
    33.4600        60
    33.4800        64
    33.5000        62
    33.5200        58
    33.5400        52
    33.5600        60
    33.5800        60
    33.6000        54
    33.6200        64
    33.6400        50
    33.6600        44
    33.6800        50
    33.7000        52
    33.7200        48
    33.7400        46
    33.7600        54
    33.7800        46
    33.8000        52
    33.8200        48
    33.8400        52
    33.8600        40
    33.8800        40
    33.9000        52
    33.9200        54
    33.9400        36
    33.9600        58
    33.9800        38
    34.0000        54
    34.0200        40
    34.0400        50
    34.0600        46
    34.0800        40
    34.1000        46
    34.1200        48
    34.1400        50
    34.1600        48
    34.1800        40
    34.2000        42
    34.2200        38
    34.2400        64
    34.2600        58
    34.2800        52
    34.3000        54
    34.3200        52
    34.3400        62
    34.3600        60
    34.3800        54
    34.4000        50
    34.4200        64
    34.4400        74
    34.4600        52
    34.4800        64
    34.5000        70
    34.5200        74
    34.5400        70
    34.5600        88
    34.5800        74
    34.6000        96
    34.6200       110
    34.6400        84
    34.6600       110
    34.6800       102
    34.7000        82
    34.7200        76
    34.7400        96
    34.7600        90
    34.7800        68
    34.8000        72
    34.8200        72
    34.8400        66
    34.8600        80
    34.8800        64
    34.9000        62
    34.9200        72
    34.9400        56
    34.9600        60
    34.9800        68
    35.0000        52
    35.0200        66
    35.0400        62
    35.0600        52
    35.0800        66
    35.1000        68
    35.1200        56
    35.1400        54
    35.1600        62
    35.1800        52
    35.2000        58
    35.2200        56
    35.2400        60
    35.2600        50
    35.2800        60
    35.3000        64
    35.3200        66
    35.3400        64
    35.3600        54
    35.3800        64
    35.4000        52
    35.4200        62
    35.4400        60
    35.4600        72
    35.4800        60
    35.5000        74
    35.5200        72
    35.5400        60
    35.5600        68
    35.5800        64
    35.6000        62
    35.6200        48
    35.6400        60
    35.6600        60
    35.6800        56
    35.7000        62
    35.7200        74
    35.7400        72
    35.7600        68
    35.7800        88
    35.8000        68
    35.8200        84
    35.8400        80
    35.8600        68
    35.8800       102
    35.9000        88
    35.9200       104
    35.9400       116
    35.9600       122
    35.9800       136
    36.0000       130
    36.0200       118
    36.0400       136
    36.0600       144
    36.0800       168
    36.1000       164
    36.1200       194
    36.1400       192
    36.1600       210
    36.1800       200
    36.2000       236
    36.2200       218
    36.2400       204
    36.2600       204
    36.2800       212
    36.3000       164
    36.3200       170
    36.3400       188
    36.3600       196
    36.3800       170
    36.4000       178
    36.4200       230
    36.4400       218
    36.4600       210
    36.4800       216
    36.5000       214
    36.5200       202
    36.5400       254
    36.5600       214
    36.5800       200
    36.6000       210
    36.6200       180
    36.6400       176
    36.6600       168
    36.6800       180
    36.7000       158
    36.7200       140
    36.7400       154
    36.7600       142
    36.7800       126
    36.8000       116
    36.8200       120
    36.8400       112
    36.8600       102
    36.8800        94
    36.9000        98
    36.9200        72
    36.9400        68
    36.9600        68
    36.9800        66
    37.0000        70
    37.0200        72
    37.0400        60
    37.0600        62
    37.0800        64
    37.1000        56
    37.1200        52
    37.1400        60
    37.1600        40
    37.1800        42
    37.2000        50
    37.2200        52
    37.2400        52
    37.2600        48
    37.2800        44
    37.3000        50
    37.3200        44
    37.3400        58
    37.3600        46
    37.3800        46
    37.4000        42
    37.4200        50
    37.4400        30
    37.4600        38
    37.4800        60
    37.5000        54
    37.5200        44
    37.5400        44
    37.5600        42
    37.5800        46
    37.6000        50
    37.6200        54
    37.6400        46
    37.6600        48
    37.6800        38
    37.7000        44
    37.7200        46
    37.7400        42
    37.7600        64
    37.7800        64
    37.8000        52
    37.8200        56
    37.8400        72
    37.8600        50
    37.8800        64
    37.9000        76
    37.9200       102
    37.9400        72
    37.9600        74
    37.9800        64
    38.0000        76
    38.0200        88
    38.0400        76
    38.0600        56
    38.0800        64
    38.1000        54
    38.1200        62
    38.1400        48
    38.1600        52
    38.1800        70
    38.2000        64
    38.2200        52
    38.2400        42
    38.2600        46
    38.2800        38
    38.3000        44
    38.3200        54
    38.3400        40
    38.3600        36
    38.3800        58
    38.4000        52
    38.4200        44
    38.4400        44
    38.4600        52
    38.4800        40
    38.5000        48
    38.5200        48
    38.5400        36
    38.5600        42
    38.5800        44
    38.6000        50
    38.6200        34
    38.6400        54
    38.6600        40
    38.6800        48
    38.7000        52
    38.7200        56
    38.7400        48
    38.7600        38
    38.7800        40
    38.8000        52
    38.8200        54
    38.8400        48
    38.8600        48
    38.8800        42
    38.9000        36
    38.9200        52
    38.9400        42
    38.9600        46
    38.9800        38
    39.0000        38
    39.0200        46
    39.0400        44
    39.0600        48
    39.0800        44
    39.1000        50
    39.1200        40
    39.1400        42
    39.1600        50
    39.1800        38
    39.2000        52
    39.2200        46
    39.2400        62
    39.2600        58
    39.2800        92
    39.3000        78
    39.3200        72
    39.3400        92
    39.3600        72
    39.3800        74
    39.4000        74
    39.4200        72
    39.4400        82
    39.4600        68
    39.4800        56
    39.5000        52
    39.5200        56
    39.5400        38
    39.5600        46
    39.5800        38
    39.6000        50
    39.6200        44
    39.6400        54
    39.6600        48
    39.6800        58
    39.7000        56
    39.7200        64
    39.7400        58
    39.7600        74
    39.7800        54
    39.8000        78
    39.8200        62
    39.8400        44
    39.8600        68
    39.8800        78
    39.9000        70
    39.9200        76
    39.9400        82
    39.9600        70
    39.9800        84
    40.0000        64
    40.0200        70
    40.0400        66
    40.0600        72
    40.0800        72
    40.1000        90
    40.1200        60
    40.1400        94
    40.1600        88
    40.1800        78
    40.2000        80
    40.2200        78
    40.2400        66
    40.2600        50
    40.2800        58
    40.3000        78
    40.3200        58
    40.3400        58
    40.3600        38
    40.3800        42
    40.4000        40
    40.4200        64
    40.4400        34
    40.4600        60
    40.4800        50
    40.5000        44
    40.5200        48
    40.5400        46
    40.5600        44
    40.5800        46
    40.6000        44
    40.6200        46
    40.6400        50
    40.6600        42
    40.6800        58
    40.7000        48
    40.7200        46
    40.7400        54
    40.7600        62
    40.7800        44
    40.8000        50
    40.8200        52
    40.8400        56
    40.8600        36
    40.8800        66
    40.9000        56
    40.9200        58
    40.9400        48
    40.9600        48
    40.9800        68
    41.0000        62
    41.0200        74
    41.0400        76
    41.0600        78
    41.0800        78
    41.1000        80
    41.1200        68
    41.1400       102
    41.1600        66
    41.1800        76
    41.2000        58
    41.2200        72
    41.2400        74
    41.2600        74
    41.2800        54
    41.3000        62
    41.3200        60
    41.3400        52
    41.3600        54
    41.3800        62
    41.4000        58
    41.4200        42
    41.4400        48
    41.4600        50
    41.4800        54
    41.5000        42
    41.5200        46
    41.5400        34
    41.5600        50
    41.5800        44
    41.6000        38
    41.6200        40
    41.6400        50
    41.6600        52
    41.6800        38
    41.7000        46
    41.7200        34
    41.7400        30
    41.7600        40
    41.7800        32
    41.8000        38
    41.8200        46
    41.8400        38
    41.8600        56
    41.8800        32
    41.9000        48
    41.9200        34
    41.9400        44
    41.9600        30
    41.9800        34
    42.0000        34
    42.0200        40
    42.0400        32
    42.0600        32
    42.0800        48
    42.1000        26
    42.1200        34
    42.1400        58
    42.1600        38
    42.1800        54
    42.2000        38
    42.2200        46
    42.2400        48
    42.2600        48
    42.2800        62
    42.3000        66
    42.3200        72
    42.3400        78
    42.3600        82
    42.3800        78
    42.4000        60
    42.4200        62
    42.4400        56
    42.4600        64
    42.4800        72
    42.5000        40
    42.5200        48
    42.5400        46
    42.5600        46
    42.5800        30
    42.6000        38
    42.6200        34
    42.6400        40
    42.6600        36
    42.6800        32
    42.7000        32
    42.7200        40
    42.7400        44
    42.7600        38
    42.7800        34
    42.8000        42
    42.8200        36
    42.8400        38
    42.8600        40
    42.8800        34
    42.9000        32
    42.9200        46
    42.9400        28
    42.9600        46
    42.9800        42
    43.0000        40
    43.0200        28
    43.0400        38
    43.0600        40
    43.0800        42
    43.1000        42
    43.1200        34
    43.1400        34
    43.1600        50
    43.1800        62
    43.2000        58
    43.2200        58
    43.2400        56
    43.2600        58
    43.2800        46
    43.3000        44
    43.3200        46
    43.3400        36
    43.3600        48
    43.3800        44
    43.4000        48
    43.4200        48
    43.4400        40
    43.4600        40
    43.4800        38
    43.5000        36
    43.5200        34
    43.5400        34
    43.5600        42
    43.5800        24
    43.6000        30
    43.6200        36
    43.6400        24
    43.6600        50
    43.6800        40
    43.7000        34
    43.7200        30
    43.7400        34
    43.7600        38
    43.7800        32
    43.8000        30
    43.8200        40
    43.8400        24
    43.8600        26
    43.8800        26
    43.9000        48
    43.9200        30
    43.9400        44
    43.9600        50
    43.9800        34
    44.0000        30
    44.0200        30
    44.0400        40
    44.0600        36
    44.0800        40
    44.1000        38
    44.1200        20
    44.1400        44
    44.1600        30
    44.1800        36
    44.2000        38
    44.2200        30
    44.2400        30
    44.2600        32
    44.2800        32
    44.3000        42
    44.3200        30
    44.3400        24
    44.3600        36
    44.3800        40
    44.4000        32
    44.4200        36
    44.4400        28
    44.4600        34
    44.4800        46
    44.5000        32
    44.5200        34
    44.5400        38
    44.5600        28
    44.5800        42
    44.6000        24
    44.6200        42
    44.6400        30
    44.6600        38
    44.6800        28
    44.7000        56
    44.7200        46
    44.7400        34
    44.7600        36
    44.7800        34
    44.8000        58
    44.8200        34
    44.8400        40
    44.8600        28
    44.8800        28
    44.9000        56
    44.9200        32
    44.9400        36
    44.9600        40
    44.9800        44
    45.0000        38
    45.0200        42
    45.0400        42
    45.0600        52
    45.0800        46
    45.1000        36
    45.1200        36
    45.1400        38
    45.1600        32
    45.1800        34
    45.2000        46
    45.2200        46
    45.2400        38
    45.2600        50
    45.2800        34
    45.3000        40
    45.3200        40
    45.3400        38
    45.3600        40
    45.3800        46
    45.4000        50
    45.4200        36
    45.4400        36
    45.4600        48
    45.4800        42
    45.5000        50
    45.5200        38
    45.5400        36
    45.5600        48
    45.5800        56
    45.6000        42
    45.6200        46
    45.6400        54
    45.6600        54
    45.6800        40
    45.7000        76
    45.7200        44
    45.7400        44
    45.7600        34
    45.7800        44
    45.8000        38
    45.8200        52
    45.8400        38
    45.8600        44
    45.8800        54
    45.9000        32
    45.9200        40
    45.9400        32
    45.9600        40
    45.9800        24
    46.0000        30
    46.0200        40
    46.0400        24
    46.0600        38
    46.0800        28
    46.1000        40
    46.1200        30
    46.1400        28
    46.1600        34
    46.1800        38
    46.2000        38
    46.2200        42
    46.2400        44
    46.2600        26
    46.2800        36
    46.3000        32
    46.3200        38
    46.3400        50
    46.3600        56
    46.3800        58
    46.4000        40
    46.4200        48
    46.4400        54
    46.4600        58
    46.4800        60
    46.5000        58
    46.5200        62
    46.5400        74
    46.5600        66
    46.5800        80
    46.6000        82
    46.6200        92
    46.6400        84
    46.6600       108
    46.6800       134
    46.7000       124
    46.7200       114
    46.7400       122
    46.7600       120
    46.7800       128
    46.8000        98
    46.8200       122
    46.8400       126
    46.8600        86
    46.8800       102
    46.9000        88
    46.9200        82
    46.9400        76
    46.9600        64
    46.9800        64
    47.0000        46
    47.0200        44
    47.0400        50
    47.0600        42
    47.0800        62
    47.1000        44
    47.1200        58
    47.1400        52
    47.1600        36
    47.1800        50
    47.2000        48
    47.2200        42
    47.2400        44
    47.2600        62
    47.2800        48
    47.3000        40
    47.3200        56
    47.3400        56
    47.3600        36
    47.3800        32
    47.4000        38
    47.4200        46
    47.4400        40
    47.4600        52
    47.4800        32
    47.5000        34
    47.5200        46
    47.5400        40
    47.5600        42
    47.5800        34
    47.6000        36
    47.6200        42
    47.6400        32
    47.6600        36
    47.6800        38
    47.7000        32
    47.7200        32
    47.7400        34
    47.7600        32
    47.7800        44
    47.8000        40
    47.8200        38
    47.8400        26
    47.8600        32
    47.8800        42
    47.9000        42
    47.9200        34
    47.9400        32
    47.9600        42
    47.9800        36
    48.0000        46
    48.0200        38
    48.0400        36
    48.0600        32
    48.0800        38
    48.1000        42
    48.1200        48
    48.1400        22
    48.1600        34
    48.1800        36
    48.2000        48
    48.2200        36
    48.2400        24
    48.2600        38
    48.2800        34
    48.3000        30
    48.3200        26
    48.3400        40
    48.3600        38
    48.3800        44
    48.4000        32
    48.4200        28
    48.4400        38
    48.4600        34
    48.4800        30
    48.5000        26
    48.5200        40
    48.5400        38
    48.5600        36
    48.5800        26
    48.6000        34
    48.6200        36
    48.6400        36
    48.6600        36
    48.6800        24
    48.7000        46
    48.7200        32
    48.7400        46
    48.7600        38
    48.7800        36
    48.8000        46
    48.8200        38
    48.8400        32
    48.8600        40
    48.8800        44
    48.9000        38
    48.9200        42
    48.9400        42
    48.9600        28
    48.9800        42
    49.0000        54
    49.0200        40
    49.0400        40
    49.0600        42
    49.0800        56
    49.1000        70
    49.1200        52
    49.1400        56
    49.1600        50
    49.1800        58
    49.2000        44
    49.2200        48
    49.2400        50
    49.2600        38
    49.2800        34
    49.3000        42
    49.3200        44
    49.3400        42
    49.3600        40
    49.3800        32
    49.4000        38
    49.4200        46
    49.4400        50
    49.4600        36
    49.4800        50
    49.5000        36
    49.5200        32
    49.5400        40
    49.5600        34
    49.5800        36
    49.6000        40
    49.6200        42
    49.6400        42
    49.6600        48
    49.6800        32
    49.7000        30
    49.7200        42
    49.7400        32
    49.7600        42
    49.7800        38
    49.8000        58
    49.8200        42
    49.8400        34
    49.8600        40
    49.8800        78
    49.9000        60
    49.9200        58
    49.9400        88
    49.9600       124
    49.9800       122
    50.0000       142
    50.0200       120
    50.0400       132
    50.0600       144
    50.0800       122
    50.1000       118
    50.1200       100
    50.1400        96
    50.1600        72
    50.1800        96
    50.2000        66
    50.2200        72
    50.2400        56
    50.2600        42
    50.2800        60
    50.3000        42
    50.3200        40
    50.3400        46
    50.3600        40
    50.3800        54
    50.4000        54
    50.4200        44
    50.4400        50
    50.4600        46
    50.4800        68
    50.5000        52
    50.5200        70
    50.5400        64
    50.5600        46
    50.5800        38
    50.6000        52
    50.6200        54
    50.6400        46
    50.6600        54
    50.6800        42
    50.7000        60
    50.7200        46
    50.7400        52
    50.7600        44
    50.7800        44
    50.8000        38
    50.8200        44
    50.8400        36
    50.8600        28
    50.8800        32
    50.9000        38
    50.9200        30
    50.9400        40
    50.9600        38
    50.9800        40
    51.0000        44
    51.0200        38
    51.0400        40
    51.0600        34
    51.0800        46
    51.1000        44
    51.1200        54
    51.1400        56
    51.1600        34
    51.1800        34
    51.2000        46
    51.2200        48
    51.2400        40
    51.2600        28
    51.2800        38
    51.3000        32
    51.3200        42
    51.3400        46
    51.3600        46
    51.3800        32
    51.4000        40
    51.4200        48
    51.4400        48
    51.4600        32
    51.4800        28
    51.5000        46
    51.5200        36
    51.5400        38
    51.5600        26
    51.5800        34
    51.6000        38
    51.6200        32
    51.6400        38
    51.6600        32
    51.6800        44
    51.7000        40
    51.7200        40
    51.7400        40
    51.7600        32
    51.7800        28
    51.8000        30
    51.8200        28
    51.8400        32
    51.8600        36
    51.8800        24
    51.9000        38
    51.9200        32
    51.9400        32
    51.9600        38
    51.9800        34
    52.0000        38
    52.0200        42
    52.0400        42
    52.0600        46
    52.0800        36
    52.1000        28
    52.1200        34
    52.1400        32
    52.1600        48
    52.1800        38
    52.2000        40
    52.2200        34
    52.2400        38
    52.2600        46
    52.2800        48
    52.3000        56
    52.3200        50
    52.3400        48
    52.3600        56
    52.3800        42
    52.4000        54
    52.4200        60
    52.4400        48
    52.4600        50
    52.4800        54
    52.5000        58
    52.5200        64
    52.5400        68
    52.5600        90
    52.5800        78
    52.6000        86
    52.6200        88
    52.6400        86
    52.6600        98
    52.6800        80
    52.7000        74
    52.7200        80
    52.7400        56
    52.7600        72
    52.7800        76
    52.8000        74
    52.8200        84
    52.8400        72
    52.8600        72
    52.8800        94
    52.9000        70
    52.9200        74
    52.9400        70
    52.9600        82
    52.9800        94
    53.0000        76
    53.0200        88
    53.0400        74
    53.0600       124
    53.0800        96
    53.1000        70
    53.1200        88
    53.1400       102
    53.1600        88
    53.1800       112
    53.2000        88
    53.2200       112
    53.2400       104
    53.2600       110
    53.2800        74
    53.3000        82
    53.3200        80
    53.3400        82
    53.3600        72
    53.3800        80
    53.4000        78
    53.4200        64
    53.4400        78
    53.4600        76
    53.4800        70
    53.5000        70
    53.5200        52
    53.5400        48
    53.5600        62
    53.5800        54
    53.6000        70
    53.6200        52
    53.6400        62
    53.6600        54
    53.6800        54
    53.7000        50
    53.7200        54
    53.7400        38
    53.7600        42
    53.7800        44
    53.8000        48
    53.8200        50
    53.8400        36
    53.8600        48
    53.8800        38
    53.9000        34
    53.9200        48
    53.9400        58
    53.9600        48
    53.9800        52
    54.0000        60
    54.0200        54
    54.0400        62
    54.0600        58
    54.0800        68
    54.1000        54
    54.1200        56
    54.1400        54
    54.1600        58
    54.1800        38
    54.2000        46
    54.2200        52
    54.2400        54
    54.2600        62
    54.2800        66
    54.3000        52
    54.3200        52
    54.3400        52
    54.3600        42
    54.3800        56
    54.4000        48
    54.4200        48
    54.4400        38
    54.4600        38
    54.4800        40
    54.5000        42
    54.5200        40
    54.5400        52
    54.5600        58
    54.5800        50
    54.6000        44
    54.6200        42
    54.6400        46
    54.6600        64
    54.6800        58
    54.7000        64
    54.7200        78
    54.7400        80
    54.7600        74
    54.7800        72
    54.8000        80
    54.8200        84
    54.8400        62
    54.8600        66
    54.8800        68
    54.9000        68
    54.9200        52
    54.9400        68
    54.9600        62
    54.9800        54
    55.0000        48
    55.0200        32
    55.0400        44
    55.0600        52
    55.0800        44
    55.1000        54
    55.1200        52
    55.1400        40
    55.1600        50
    55.1800        50
    55.2000        46
    55.2200        48
    55.2400        54
    55.2600        38
    55.2800        62
    55.3000        58
    55.3200        40
    55.3400        42
    55.3600        46
    55.3800        50
    55.4000        44
    55.4200        52
    55.4400        40
    55.4600        50
    55.4800        38
    55.5000        42
    55.5200        38
    55.5400        46
    55.5600        32
    55.5800        40
    55.6000        40
    55.6200        50
    55.6400        36
    55.6600        46
    55.6800        52
    55.7000        34
    55.7200        32
    55.7400        44
    55.7600        44
    55.7800        38
    55.8000        26
    55.8200        38
    55.8400        30
    55.8600        34
    55.8800        34
    55.9000        44
    55.9200        40
    55.9400        34
    55.9600        40
    55.9800        38
    56.0000        54
    56.0200        48
    56.0400        22
    56.0600        36
    56.0800        28
    56.1000        38
    56.1200        36
    56.1400        40
    56.1600        44
    56.1800        38
    56.2000        34
    56.2200        36
    56.2400        28
    56.2600        32
    56.2800        42
    56.3000        32
    56.3200        40
    56.3400        30
    56.3600        34
    56.3800        30
    56.4000        40
    56.4200        30
    56.4400        58
    56.4600        46
    56.4800        34
    56.5000        40
    56.5200        32
    56.5400        44
    56.5600        36
    56.5800        36
    56.6000        36
    56.6200        40
    56.6400        48
    56.6600        46
    56.6800        52
    56.7000        44
    56.7200        34
    56.7400        40
    56.7600        46
    56.7800        30
    56.8000        40
    56.8200        38
    56.8400        38
    56.8600        46
    56.8800        26
    56.9000        40
    56.9200        24
    56.9400        38
    56.9600        40
    56.9800        54
    57.0000        36
    57.0200        44
    57.0400        34
    57.0600        42
    57.0800        46
    57.1000        56
    57.1200        52
    57.1400        46
    57.1600        42
    57.1800        40
    57.2000        40
    57.2200        48
    57.2400        50
    57.2600        46
    57.2800        46
    57.3000        54
    57.3200        50
    57.3400        46
    57.3600        62
    57.3800        46
    57.4000        38
    57.4200        46
    57.4400        44
    57.4600        40
    57.4800        48
    57.5000        48
    57.5200        48
    57.5400        42
    57.5600        42
    57.5800        36
    57.6000        36
    57.6200        34
    57.6400        44
    57.6600        36
    57.6800        38
    57.7000        44
    57.7200        44
    57.7400        46
    57.7600        40
    57.7800        42
    57.8000        34
    57.8200        34
    57.8400        42
    57.8600        40
    57.8800        34
    57.9000        34
    57.9200        44
    57.9400        50
    57.9600        34
    57.9800        40
    58.0000        42
    58.0200        38
    58.0400        38
    58.0600        38
    58.0800        32
    58.1000        42
    58.1200        36
    58.1400        42
    58.1600        30
    58.1800        38
    58.2000        30
    58.2200        50
    58.2400        42
    58.2600        48
    58.2800        42
    58.3000        48
    58.3200        42
    58.3400        44
    58.3600        42
    58.3800        42
    58.4000        40
    58.4200        32
    58.4400        42
    58.4600        48
    58.4800        38
    58.5000        44
    58.5200        52
    58.5400        48
    58.5600        64
    58.5800        46
    58.6000        54
    58.6200        46
    58.6400        50
    58.6600        50
    58.6800        62
    58.7000        54
    58.7200        56
    58.7400        68
    58.7600        50
    58.7800        58
    58.8000        88
    58.8200        70
    58.8400        98
    58.8600        82
    58.8800        76
    58.9000        86
    58.9200        82
    58.9400        72
    58.9600        66
    58.9800        80
    59.0000        82
    59.0200        78
    59.0400        72
    59.0600        62
    59.0800        64
    59.1000        74
    59.1200        64
    59.1400        66
    59.1600        66
    59.1800        62
    59.2000        64
    59.2200        66
    59.2400        46
    59.2600        68
    59.2800        56
    59.3000        46
    59.3200        48
    59.3400        34
    59.3600        44
    59.3800        50
    59.4000        50
    59.4200        38
    59.4400        60
    59.4600        36
    59.4800        40
    59.5000        42
    59.5200        54
    59.5400        58
    59.5600        38
    59.5800        42
    59.6000        54
    59.6200        38
    59.6400        44
    59.6600        38
    59.6800        72
    59.7000        56
    59.7200        54
    59.7400        56
    59.7600        70
    59.7800        78
    59.8000        76
    59.8200        88
    59.8400       106
    59.8600        94
    59.8800        82
    59.9000        88
    59.9200        68
    59.9400        84
    59.9600        56
    59.9800        74
    60.0000        84
    60.0200        84
    60.0400        66
    60.0600        90
    60.0800        70
    60.1000        70
    60.1200        56
    60.1400        52
    60.1600        52
    60.1800        54
    60.2000        44
    60.2200        52
    60.2400        68
    60.2600        70
    60.2800        52
    60.3000        64
    60.3200        66
    60.3400        42
    60.3600        54
    60.3800        52
    60.4000        44
    60.4200        46
    60.4400        60
    60.4600        70
    60.4800        72
    60.5000        68
    60.5200        68
    60.5400        80
    60.5600        84
    60.5800        72
    60.6000        86
    60.6200        74
    60.6400        86
    60.6600        80
    60.6800        60
    60.7000        70
    60.7200        72
    60.7400        66
    60.7600        70
    60.7800        78
    60.8000        54
    60.8200        58
    60.8400        54
    60.8600        68
    60.8800        46
    60.9000        60
    60.9200        40
    60.9400        48
    60.9600        48
    60.9800        34
    61.0000        38
    61.0200        50
    61.0400        62
    61.0600        58
    61.0800        54
    61.1000        66
    61.1200        42
    61.1400        58
    61.1600        56
    61.1800        74
    61.2000        80
    61.2200        62
    61.2400        66
    61.2600        58
    61.2800        80
    61.3000        80
    61.3200        76
    61.3400        62
    61.3600        64
    61.3800        66
    61.4000        62
    61.4200        68
    61.4400        62
    61.4600        52
    61.4800        60
    61.5000        42
    61.5200        62
    61.5400        68
    61.5600        42
    61.5800        50
    61.6000        50
    61.6200        48
    61.6400        50
    61.6600        44
    61.6800        42
    61.7000        58
    61.7200        40
    61.7400        52
    61.7600        42
    61.7800        34
    61.8000        44
    61.8200        42
    61.8400        44
    61.8600        42
    61.8800        42
    61.9000        44
    61.9200        48
    61.9400        52
    61.9600        42
    61.9800        50
    62.0000        56
    62.0200        44
    62.0400        42
    62.0600        42
    62.0800        68
    62.1000        48
    62.1200        64
    62.1400        40
    62.1600        52
    62.1800        46
    62.2000        52
    62.2200        52
    62.2400        34
    62.2600        54
    62.2800        52
    62.3000        34
    62.3200        46
    62.3400        42
    62.3600        42
    62.3800        34
    62.4000        30
    62.4200        22
    62.4400        50
    62.4600        38
    62.4800        46
    62.5000        50
    62.5200        38
    62.5400        38
    62.5600        44
    62.5800        38
    62.6000        46
    62.6200        32
    62.6400        38
    62.6600        40
    62.6800        46
    62.7000        48
    62.7200        50
    62.7400        32
    62.7600        34
    62.7800        34
    62.8000        34
    62.8200        34
    62.8400        46
    62.8600        48
    62.8800        40
    62.9000        38
    62.9200        36
    62.9400        46
    62.9600        34
    62.9800        36
    63.0000        48
    63.0200        42
    63.0400        50
    63.0600        48
    63.0800        44
    63.1000        50
    63.1200        40
    63.1400        52
    63.1600        40
    63.1800        36
    63.2000        36
    63.2200        32
    63.2400        52
    63.2600        50
    63.2800        32
    63.3000        40
    63.3200        36
    63.3400        34
    63.3600        56
    63.3800        42
    63.4000        38
    63.4200        48
    63.4400        50
    63.4600        48
    63.4800        44
    63.5000        50
    63.5200        30
    63.5400        36
    63.5600        40
    63.5800        44
    63.6000        38
    63.6200        36
    63.6400        50
    63.6600        40
    63.6800        60
    63.7000        38
    63.7200        52
    63.7400        44
    63.7600        54
    63.7800        52
    63.8000        54
    63.8200        54
    63.8400        60
    63.8600        68
    63.8800        62
    63.9000        78
    63.9200        72
    63.9400        74
    63.9600        58
    63.9800        70
    64.0000        66
    64.0200        76
    64.0400        50
    64.0600        64
    64.0800        62
    64.1000        60
    64.1200        68
    64.1400        66
    64.1600        66
    64.1800        56
    64.2000        48
    64.2200        56
    64.2400        42
    64.2600        42
    64.2800        60
    64.3000        28
    64.3200        44
    64.3400        28
    64.3600        44
    64.3800        42
    64.4000        44
    64.4200        36
    64.4400        42
    64.4600        48
    64.4800        38
    64.5000        42
    64.5200        42
    64.5400        42
    64.5600        38
    64.5800        38
    64.6000        46
    64.6200        44
    64.6400        56
    64.6600        36
    64.6800        62
    64.7000        50
    64.7200        56
    64.7400        52
    64.7600        50
    64.7800        50
    64.8000        58
    64.8200        60
    64.8400        62
    64.8600        60
    64.8800        56
    64.9000        64
    64.9200        48
    64.9400        46
    64.9600        26
    64.9800        60
    65.0000        48
