/////////////////////////////////////////////////////////////////////////////////
/// Profile Data Ascii Dump (XRD)                                             ///
/////////////////////////////////////////////////////////////////////////////////

  Group     : Swayze
  Data      : WS423
  File Name : WS423.RAW

# Profile Datafile
          comment             = Chlorapatite 
          date & time         = 08-04-08 06:58:39 

# Measurement Condition
    X-ray tube
          target              = Cu 
          voltage             = 40.0 (kV)
          current             = 30.0 (mA)
    Slits
          divergence slit     = 2.00000 (deg) 
          scatter slit        = 2.00000 (deg) 
          receiving slit      = 0.15000 (mm)  
    Scanning
          drive axis          = Theta-2Theta 
          scan range          =    4.000 -   65.000 
          scan mode           = Continuous Scan 
          scan speed          =   2.0000 (deg/min) 
          sampling pitch      =   0.0200 (deg) 
          preset time         =   0.60 (sec) 

# Data      [ Total No. = 3051 ]
  <2Theta>   <   I   >
     4.0000       186
     4.0200       174
     4.0400       162
     4.0600       174
     4.0800       178
     4.1000       188
     4.1200       186
     4.1400       188
     4.1600       188
     4.1800       182
     4.2000       174
     4.2200       168
     4.2400       184
     4.2600       184
     4.2800       186
     4.3000       186
     4.3200       146
     4.3400       162
     4.3600       172
     4.3800       168
     4.4000       150
     4.4200       160
     4.4400       190
     4.4600       192
     4.4800       154
     4.5000       166
     4.5200       140
     4.5400       168
     4.5600       184
     4.5800       150
     4.6000       160
     4.6200       156
     4.6400       160
     4.6600       152
     4.6800       168
     4.7000       174
     4.7200       160
     4.7400       186
     4.7600       166
     4.7800       180
     4.8000       156
     4.8200       174
     4.8400       156
     4.8600       166
     4.8800       182
     4.9000       152
     4.9200       142
     4.9400       158
     4.9600       152
     4.9800       160
     5.0000       168
     5.0200       168
     5.0400       126
     5.0600       154
     5.0800       142
     5.1000       174
     5.1200       162
     5.1400       164
     5.1600       154
     5.1800       140
     5.2000       128
     5.2200       146
     5.2400       158
     5.2600       146
     5.2800       150
     5.3000       154
     5.3200       166
     5.3400       176
     5.3600       156
     5.3800       158
     5.4000       154
     5.4200       166
     5.4400       164
     5.4600       158
     5.4800       146
     5.5000       168
     5.5200       170
     5.5400       138
     5.5600       170
     5.5800       146
     5.6000       172
     5.6200       156
     5.6400       156
     5.6600       136
     5.6800       144
     5.7000       152
     5.7200       142
     5.7400       176
     5.7600       146
     5.7800       164
     5.8000       146
     5.8200       146
     5.8400       148
     5.8600       186
     5.8800       178
     5.9000       140
     5.9200       160
     5.9400       138
     5.9600       160
     5.9800       150
     6.0000       154
     6.0200       144
     6.0400       136
     6.0600       136
     6.0800       148
     6.1000       160
     6.1200       160
     6.1400       146
     6.1600       170
     6.1800       148
     6.2000       138
     6.2200       134
     6.2400       152
     6.2600       134
     6.2800       148
     6.3000       152
     6.3200       150
     6.3400       140
     6.3600       132
     6.3800       122
     6.4000       134
     6.4200       160
     6.4400       144
     6.4600       126
     6.4800       152
     6.5000       134
     6.5200       144
     6.5400       160
     6.5600       110
     6.5800       120
     6.6000       146
     6.6200       136
     6.6400       124
     6.6600       108
     6.6800       124
     6.7000       120
     6.7200       126
     6.7400       118
     6.7600       116
     6.7800       134
     6.8000       130
     6.8200       134
     6.8400       114
     6.8600       128
     6.8800       132
     6.9000       118
     6.9200       118
     6.9400       132
     6.9600       130
     6.9800       106
     7.0000       114
     7.0200       120
     7.0400       112
     7.0600       122
     7.0800       126
     7.1000       116
     7.1200       124
     7.1400       124
     7.1600       118
     7.1800       126
     7.2000       118
     7.2200       108
     7.2400       108
     7.2600       106
     7.2800       126
     7.3000       116
     7.3200       132
     7.3400       112
     7.3600        94
     7.3800        84
     7.4000       114
     7.4200       120
     7.4400       110
     7.4600       100
     7.4800       118
     7.5000       128
     7.5200       116
     7.5400       110
     7.5600       104
     7.5800       104
     7.6000       104
     7.6200       136
     7.6400       120
     7.6600       106
     7.6800       106
     7.7000       110
     7.7200       112
     7.7400        98
     7.7600       108
     7.7800       116
     7.8000       114
     7.8200        98
     7.8400       102
     7.8600       114
     7.8800        86
     7.9000       118
     7.9200       106
     7.9400        96
     7.9600       118
     7.9800       130
     8.0000       102
     8.0200       104
     8.0400       132
     8.0600       100
     8.0800       126
     8.1000       108
     8.1200       108
     8.1400        94
     8.1600       104
     8.1800       114
     8.2000       106
     8.2200       116
     8.2400       104
     8.2600        98
     8.2800       114
     8.3000        94
     8.3200       110
     8.3400       112
     8.3600       100
     8.3800       122
     8.4000       126
     8.4200       110
     8.4400       120
     8.4600       122
     8.4800       142
     8.5000       116
     8.5200       124
     8.5400       110
     8.5600       118
     8.5800       130
     8.6000        94
     8.6200       124
     8.6400       112
     8.6600       124
     8.6800       118
     8.7000        88
     8.7200       114
     8.7400       118
     8.7600       126
     8.7800        98
     8.8000       112
     8.8200       106
     8.8400       128
     8.8600       116
     8.8800       122
     8.9000       118
     8.9200       102
     8.9400       142
     8.9600       126
     8.9800        94
     9.0000       124
     9.0200       102
     9.0400       102
     9.0600       120
     9.0800       122
     9.1000       120
     9.1200       134
     9.1400       104
     9.1600       112
     9.1800       124
     9.2000       108
     9.2200       104
     9.2400        96
     9.2600       110
     9.2800       108
     9.3000       114
     9.3200       116
     9.3400       120
     9.3600       112
     9.3800       138
     9.4000       102
     9.4200       124
     9.4400       130
     9.4600        98
     9.4800       134
     9.5000       120
     9.5200       102
     9.5400       114
     9.5600       100
     9.5800        92
     9.6000       120
     9.6200       110
     9.6400       100
     9.6600       114
     9.6800       118
     9.7000       120
     9.7200       104
     9.7400        94
     9.7600       118
     9.7800       114
     9.8000       114
     9.8200       100
     9.8400        94
     9.8600       106
     9.8800        88
     9.9000       102
     9.9200        88
     9.9400       108
     9.9600       102
     9.9800       106
    10.0000       110
    10.0200       112
    10.0400       128
    10.0600        96
    10.0800        94
    10.1000       108
    10.1200        84
    10.1400       126
    10.1600       116
    10.1800       112
    10.2000       100
    10.2200       120
    10.2400       100
    10.2600       120
    10.2800       102
    10.3000       104
    10.3200       122
    10.3400       118
    10.3600       102
    10.3800        82
    10.4000       112
    10.4200       120
    10.4400       114
    10.4600       132
    10.4800       106
    10.5000        96
    10.5200       102
    10.5400       138
    10.5600       164
    10.5800       124
    10.6000       112
    10.6200       112
    10.6400       120
    10.6600        96
    10.6800       112
    10.7000        98
    10.7200       112
    10.7400        92
    10.7600        88
    10.7800        92
    10.8000        98
    10.8200        94
    10.8400        92
    10.8600       112
    10.8800        84
    10.9000        90
    10.9200        98
    10.9400        92
    10.9600        94
    10.9800        90
    11.0000       100
    11.0200       106
    11.0400        86
    11.0600        84
    11.0800        82
    11.1000        92
    11.1200        92
    11.1400        98
    11.1600        86
    11.1800        78
    11.2000        82
    11.2200       100
    11.2400        76
    11.2600        96
    11.2800        70
    11.3000        78
    11.3200        86
    11.3400        84
    11.3600        90
    11.3800        94
    11.4000        80
    11.4200        88
    11.4400        74
    11.4600        72
    11.4800        76
    11.5000        88
    11.5200        72
    11.5400        82
    11.5600        74
    11.5800       106
    11.6000        80
    11.6200        70
    11.6400        78
    11.6600        72
    11.6800        76
    11.7000        80
    11.7200        68
    11.7400        68
    11.7600        94
    11.7800        78
    11.8000        88
    11.8200        68
    11.8400        74
    11.8600        70
    11.8800        92
    11.9000        72
    11.9200        96
    11.9400        88
    11.9600        88
    11.9800        76
    12.0000        86
    12.0200        82
    12.0400        74
    12.0600        78
    12.0800        82
    12.1000        80
    12.1200        74
    12.1400        72
    12.1600        78
    12.1800        86
    12.2000        74
    12.2200        96
    12.2400        70
    12.2600        96
    12.2800        94
    12.3000        72
    12.3200        70
    12.3400        72
    12.3600        76
    12.3800        82
    12.4000        74
    12.4200        92
    12.4400        68
    12.4600        68
    12.4800        82
    12.5000        72
    12.5200        78
    12.5400        76
    12.5600        76
    12.5800        68
    12.6000        74
    12.6200        64
    12.6400        66
    12.6600        86
    12.6800        70
    12.7000        70
    12.7200        62
    12.7400        86
    12.7600        86
    12.7800        76
    12.8000        78
    12.8200        56
    12.8400        76
    12.8600        78
    12.8800        66
    12.9000        54
    12.9200        74
    12.9400        64
    12.9600        62
    12.9800        80
    13.0000        66
    13.0200        58
    13.0400        60
    13.0600        56
    13.0800        58
    13.1000        68
    13.1200        78
    13.1400        62
    13.1600        68
    13.1800        60
    13.2000        78
    13.2200        80
    13.2400        70
    13.2600        64
    13.2800        76
    13.3000        76
    13.3200        68
    13.3400        72
    13.3600        76
    13.3800        52
    13.4000        64
    13.4200        54
    13.4400        72
    13.4600        68
    13.4800        66
    13.5000        60
    13.5200        90
    13.5400        64
    13.5600        68
    13.5800        66
    13.6000        70
    13.6200        80
    13.6400        64
    13.6600        66
    13.6800        76
    13.7000        58
    13.7200        60
    13.7400        78
    13.7600        56
    13.7800        58
    13.8000        74
    13.8200        68
    13.8400        60
    13.8600        62
    13.8800        74
    13.9000        64
    13.9200        66
    13.9400        58
    13.9600        72
    13.9800        68
    14.0000        62
    14.0200        62
    14.0400        68
    14.0600        48
    14.0800        58
    14.1000        52
    14.1200        74
    14.1400        64
    14.1600        62
    14.1800        52
    14.2000        60
    14.2200        46
    14.2400        58
    14.2600        58
    14.2800        66
    14.3000        66
    14.3200        78
    14.3400        68
    14.3600        46
    14.3800        54
    14.4000        66
    14.4200        66
    14.4400        56
    14.4600        70
    14.4800        48
    14.5000        52
    14.5200        46
    14.5400        64
    14.5600        62
    14.5800        36
    14.6000        66
    14.6200        58
    14.6400        58
    14.6600        48
    14.6800        64
    14.7000        52
    14.7200        56
    14.7400        54
    14.7600        64
    14.7800        62
    14.8000        50
    14.8200        66
    14.8400        62
    14.8600        60
    14.8800        56
    14.9000        50
    14.9200        64
    14.9400        68
    14.9600        66
    14.9800        72
    15.0000        68
    15.0200        46
    15.0400        74
    15.0600        48
    15.0800        42
    15.1000        40
    15.1200        52
    15.1400        42
    15.1600        60
    15.1800        56
    15.2000        54
    15.2200        44
    15.2400        48
    15.2600        44
    15.2800        76
    15.3000        46
    15.3200        56
    15.3400        52
    15.3600        56
    15.3800        60
    15.4000        38
    15.4200        68
    15.4400        62
    15.4600        64
    15.4800        64
    15.5000        66
    15.5200        68
    15.5400        48
    15.5600        58
    15.5800        66
    15.6000        54
    15.6200        44
    15.6400        54
    15.6600        50
    15.6800        56
    15.7000        62
    15.7200        48
    15.7400        38
    15.7600        38
    15.7800        46
    15.8000        40
    15.8200        56
    15.8400        58
    15.8600        80
    15.8800        54
    15.9000        48
    15.9200        52
    15.9400        62
    15.9600        46
    15.9800        44
    16.0000        62
    16.0200        64
    16.0400        60
    16.0600        62
    16.0800        54
    16.1000        66
    16.1200        54
    16.1400        54
    16.1600        54
    16.1800        64
    16.2000        50
    16.2200        52
    16.2400        44
    16.2600        56
    16.2800        58
    16.3000        54
    16.3200        56
    16.3400        50
    16.3600        50
    16.3800        66
    16.4000        52
    16.4200        60
    16.4400        50
    16.4600        54
    16.4800        48
    16.5000        42
    16.5200        60
    16.5400        62
    16.5600        52
    16.5800        60
    16.6000        68
    16.6200        64
    16.6400        66
    16.6600        72
    16.6800       108
    16.7000       104
    16.7200       110
    16.7400       104
    16.7600       120
    16.7800        82
    16.8000        80
    16.8200        62
    16.8400        50
    16.8600        50
    16.8800        50
    16.9000        58
    16.9200        54
    16.9400        52
    16.9600        52
    16.9800        46
    17.0000        46
    17.0200        56
    17.0400        60
    17.0600        42
    17.0800        50
    17.1000        46
    17.1200        40
    17.1400        48
    17.1600        46
    17.1800        46
    17.2000        42
    17.2200        40
    17.2400        52
    17.2600        42
    17.2800        50
    17.3000        38
    17.3200        30
    17.3400        50
    17.3600        50
    17.3800        50
    17.4000        42
    17.4200        56
    17.4400        52
    17.4600        36
    17.4800        50
    17.5000        52
    17.5200        58
    17.5400        50
    17.5600        58
    17.5800        56
    17.6000        24
    17.6200        32
    17.6400        52
    17.6600        42
    17.6800        68
    17.7000        52
    17.7200        44
    17.7400        36
    17.7600        52
    17.7800        32
    17.8000        46
    17.8200        52
    17.8400        42
    17.8600        42
    17.8800        44
    17.9000        44
    17.9200        62
    17.9400        38
    17.9600        50
    17.9800        52
    18.0000        44
    18.0200        34
    18.0400        48
    18.0600        40
    18.0800        50
    18.1000        52
    18.1200        38
    18.1400        36
    18.1600        58
    18.1800        54
    18.2000        42
    18.2200        38
    18.2400        44
    18.2600        46
    18.2800        34
    18.3000        42
    18.3200        42
    18.3400        40
    18.3600        38
    18.3800        48
    18.4000        42
    18.4200        46
    18.4400        46
    18.4600        50
    18.4800        34
    18.5000        56
    18.5200        32
    18.5400        56
    18.5600        50
    18.5800        66
    18.6000        54
    18.6200        36
    18.6400        44
    18.6600        48
    18.6800        52
    18.7000        40
    18.7200        56
    18.7400        46
    18.7600        42
    18.7800        56
    18.8000        38
    18.8200        56
    18.8400        44
    18.8600        54
    18.8800        44
    18.9000        40
    18.9200        48
    18.9400        48
    18.9600        36
    18.9800        40
    19.0000        52
    19.0200        50
    19.0400        64
    19.0600        52
    19.0800        42
    19.1000        46
    19.1200        46
    19.1400        46
    19.1600        42
    19.1800        42
    19.2000        44
    19.2200        66
    19.2400        40
    19.2600        56
    19.2800        62
    19.3000        42
    19.3200        40
    19.3400        46
    19.3600        58
    19.3800        32
    19.4000        52
    19.4200        40
    19.4400        30
    19.4600        42
    19.4800        38
    19.5000        40
    19.5200        48
    19.5400        46
    19.5600        42
    19.5800        46
    19.6000        44
    19.6200        44
    19.6400        44
    19.6600        38
    19.6800        44
    19.7000        36
    19.7200        56
    19.7400        56
    19.7600        42
    19.7800        46
    19.8000        52
    19.8200        48
    19.8400        40
    19.8600        44
    19.8800        38
    19.9000        42
    19.9200        38
    19.9400        48
    19.9600        48
    19.9800        46
    20.0000        48
    20.0200        50
    20.0400        42
    20.0600        42
    20.0800        38
    20.1000        46
    20.1200        36
    20.1400        40
    20.1600        28
    20.1800        38
    20.2000        38
    20.2200        54
    20.2400        34
    20.2600        34
    20.2800        48
    20.3000        58
    20.3200        48
    20.3400        38
    20.3600        56
    20.3800        48
    20.4000        50
    20.4200        44
    20.4400        44
    20.4600        44
    20.4800        54
    20.5000        42
    20.5200        34
    20.5400        50
    20.5600        40
    20.5800        42
    20.6000        38
    20.6200        50
    20.6400        44
    20.6600        44
    20.6800        34
    20.7000        70
    20.7200        62
    20.7400        54
    20.7600        44
    20.7800        50
    20.8000        50
    20.8200        38
    20.8400        36
    20.8600        44
    20.8800        40
    20.9000        30
    20.9200        38
    20.9400        34
    20.9600        38
    20.9800        28
    21.0000        44
    21.0200        36
    21.0400        40
    21.0600        36
    21.0800        46
    21.1000        38
    21.1200        44
    21.1400        48
    21.1600        44
    21.1800        36
    21.2000        44
    21.2200        56
    21.2400        52
    21.2600        50
    21.2800        52
    21.3000        48
    21.3200        40
    21.3400        46
    21.3600        40
    21.3800        42
    21.4000        58
    21.4200        42
    21.4400        40
    21.4600        30
    21.4800        36
    21.5000        42
    21.5200        38
    21.5400        34
    21.5600        46
    21.5800        40
    21.6000        58
    21.6200        42
    21.6400        42
    21.6600        34
    21.6800        38
    21.7000        44
    21.7200        46
    21.7400        46
    21.7600        38
    21.7800        30
    21.8000        40
    21.8200        40
    21.8400        48
    21.8600        34
    21.8800        34
    21.9000        44
    21.9200        52
    21.9400        38
    21.9600        48
    21.9800        38
    22.0000        36
    22.0200        32
    22.0400        48
    22.0600        46
    22.0800        42
    22.1000        34
    22.1200        40
    22.1400        50
    22.1600        28
    22.1800        50
    22.2000        34
    22.2200        42
    22.2400        44
    22.2600        34
    22.2800        34
    22.3000        36
    22.3200        48
    22.3400        40
    22.3600        44
    22.3800        42
    22.4000        40
    22.4200        38
    22.4400        62
    22.4600        44
    22.4800        50
    22.5000        54
    22.5200        58
    22.5400        64
    22.5600        56
    22.5800        56
    22.6000        50
    22.6200        52
    22.6400        58
    22.6600        54
    22.6800        58
    22.7000        50
    22.7200        44
    22.7400        36
    22.7600        46
    22.7800        52
    22.8000        42
    22.8200        30
    22.8400        38
    22.8600        38
    22.8800        42
    22.9000        30
    22.9200        54
    22.9400        40
    22.9600        32
    22.9800        34
    23.0000        40
    23.0200        50
    23.0400        36
    23.0600        38
    23.0800        40
    23.1000        34
    23.1200        30
    23.1400        36
    23.1600        42
    23.1800        42
    23.2000        36
    23.2200        52
    23.2400        30
    23.2600        34
    23.2800        32
    23.3000        42
    23.3200        36
    23.3400        32
    23.3600        38
    23.3800        26
    23.4000        24
    23.4200        48
    23.4400        34
    23.4600        36
    23.4800        28
    23.5000        38
    23.5200        32
    23.5400        60
    23.5600        38
    23.5800        42
    23.6000        34
    23.6200        30
    23.6400        36
    23.6600        40
    23.6800        28
    23.7000        30
    23.7200        34
    23.7400        46
    23.7600        44
    23.7800        26
    23.8000        24
    23.8200        34
    23.8400        34
    23.8600        42
    23.8800        34
    23.9000        42
    23.9200        38
    23.9400        38
    23.9600        26
    23.9800        34
    24.0000        38
    24.0200        44
    24.0400        34
    24.0600        36
    24.0800        46
    24.1000        24
    24.1200        36
    24.1400        36
    24.1600        30
    24.1800        48
    24.2000        32
    24.2200        28
    24.2400        34
    24.2600        30
    24.2800        30
    24.3000        34
    24.3200        40
    24.3400        30
    24.3600        38
    24.3800        32
    24.4000        38
    24.4200        32
    24.4400        28
    24.4600        32
    24.4800        34
    24.5000        38
    24.5200        34
    24.5400        38
    24.5600        44
    24.5800        36
    24.6000        30
    24.6200        36
    24.6400        28
    24.6600        26
    24.6800        28
    24.7000        32
    24.7200        36
    24.7400        40
    24.7600        36
    24.7800        30
    24.8000        30
    24.8200        46
    24.8400        40
    24.8600        62
    24.8800        60
    24.9000        66
    24.9200        62
    24.9400        54
    24.9600        78
    24.9800        82
    25.0000        80
    25.0200        84
    25.0400        68
    25.0600        60
    25.0800        52
    25.1000        54
    25.1200        44
    25.1400        30
    25.1600        38
    25.1800        42
    25.2000        30
    25.2200        34
    25.2400        42
    25.2600        32
    25.2800        26
    25.3000        30
    25.3200        28
    25.3400        38
    25.3600        34
    25.3800        30
    25.4000        32
    25.4200        34
    25.4400        36
    25.4600        24
    25.4800        32
    25.5000        28
    25.5200        26
    25.5400        34
    25.5600        30
    25.5800        46
    25.6000        48
    25.6200        36
    25.6400        36
    25.6600        36
    25.6800        44
    25.7000        30
    25.7200        40
    25.7400        34
    25.7600        48
    25.7800        52
    25.8000        64
    25.8200        60
    25.8400        56
    25.8600        66
    25.8800        68
    25.9000        82
    25.9200        98
    25.9400       120
    25.9600        98
    25.9800       120
    26.0000        96
    26.0200        92
    26.0400       124
    26.0600       146
    26.0800       126
    26.1000       186
    26.1200       208
    26.1400       252
    26.1600       266
    26.1800       216
    26.2000       182
    26.2200       166
    26.2400       130
    26.2600       130
    26.2800        72
    26.3000        84
    26.3200        74
    26.3400        54
    26.3600        48
    26.3800        38
    26.4000        54
    26.4200        66
    26.4400        60
    26.4600        60
    26.4800        76
    26.5000        88
    26.5200        90
    26.5400       102
    26.5600       100
    26.5800       100
    26.6000        90
    26.6200        82
    26.6400        72
    26.6600        66
    26.6800        38
    26.7000        38
    26.7200        52
    26.7400        34
    26.7600        36
    26.7800        36
    26.8000        24
    26.8200        28
    26.8400        48
    26.8600        32
    26.8800        26
    26.9000        38
    26.9200        42
    26.9400        38
    26.9600        34
    26.9800        28
    27.0000        36
    27.0200        28
    27.0400        38
    27.0600        42
    27.0800        34
    27.1000        36
    27.1200        32
    27.1400        44
    27.1600        40
    27.1800        40
    27.2000        36
    27.2200        32
    27.2400        24
    27.2600        32
    27.2800        30
    27.3000        34
    27.3200        36
    27.3400        36
    27.3600        30
    27.3800        28
    27.4000        44
    27.4200        30
    27.4400        26
    27.4600        32
    27.4800        40
    27.5000        38
    27.5200        34
    27.5400        32
    27.5600        30
    27.5800        40
    27.6000        18
    27.6200        34
    27.6400        36
    27.6600        24
    27.6800        36
    27.7000        36
    27.7200        32
    27.7400        40
    27.7600        40
    27.7800        30
    27.8000        34
    27.8200        36
    27.8400        26
    27.8600        28
    27.8800        34
    27.9000        26
    27.9200        30
    27.9400        36
    27.9600        34
    27.9800        32
    28.0000        46
    28.0200        22
    28.0400        40
    28.0600        48
    28.0800        54
    28.1000        76
    28.1200        80
    28.1400        82
    28.1600       104
    28.1800       102
    28.2000       110
    28.2200       116
    28.2400       116
    28.2600       104
    28.2800       102
    28.3000        98
    28.3200        80
    28.3400        98
    28.3600        84
    28.3800        80
    28.4000        38
    28.4200        58
    28.4400        42
    28.4600        40
    28.4800        44
    28.5000        46
    28.5200        34
    28.5400        44
    28.5600        36
    28.5800        44
    28.6000        34
    28.6200        34
    28.6400        34
    28.6600        34
    28.6800        42
    28.7000        46
    28.7200        32
    28.7400        42
    28.7600        50
    28.7800        34
    28.8000        32
    28.8200        52
    28.8400        42
    28.8600        36
    28.8800        42
    28.9000        36
    28.9200        46
    28.9400        42
    28.9600        42
    28.9800        48
    29.0000        50
    29.0200        38
    29.0400        32
    29.0600        32
    29.0800        36
    29.1000        28
    29.1200        26
    29.1400        40
    29.1600        46
    29.1800        36
    29.2000        34
    29.2200        36
    29.2400        34
    29.2600        40
    29.2800        38
    29.3000        40
    29.3200        38
    29.3400        32
    29.3600        22
    29.3800        42
    29.4000        34
    29.4200        34
    29.4400        26
    29.4600        30
    29.4800        44
    29.5000        30
    29.5200        30
    29.5400        32
    29.5600        24
    29.5800        26
    29.6000        48
    29.6200        38
    29.6400        18
    29.6600        42
    29.6800        24
    29.7000        28
    29.7200        20
    29.7400        44
    29.7600        34
    29.7800        34
    29.8000        34
    29.8200        40
    29.8400        32
    29.8600        34
    29.8800        38
    29.9000        38
    29.9200        40
    29.9400        30
    29.9600        32
    29.9800        34
    30.0000        22
    30.0200        34
    30.0400        32
    30.0600        32
    30.0800        28
    30.1000        28
    30.1200        28
    30.1400        42
    30.1600        40
    30.1800        34
    30.2000        26
    30.2200        30
    30.2400        46
    30.2600        42
    30.2800        34
    30.3000        40
    30.3200        40
    30.3400        40
    30.3600        38
    30.3800        42
    30.4000        28
    30.4200        32
    30.4400        40
    30.4600        40
    30.4800        42
    30.5000        44
    30.5200        38
    30.5400        36
    30.5600        38
    30.5800        42
    30.6000        32
    30.6200        32
    30.6400        40
    30.6600        42
    30.6800        38
    30.7000        52
    30.7200        36
    30.7400        40
    30.7600        46
    30.7800        44
    30.8000        48
    30.8200        60
    30.8400        52
    30.8600        72
    30.8800        58
    30.9000        66
    30.9200        78
    30.9400        92
    30.9600        82
    30.9800        92
    31.0000       134
    31.0200       144
    31.0400       170
    31.0600       184
    31.0800       262
    31.1000       292
    31.1200       388
    31.1400       528
    31.1600       716
    31.1800       842
    31.2000       984
    31.2200      1008
    31.2400      1144
    31.2600       982
    31.2800       818
    31.3000       664
    31.3200       596
    31.3400       454
    31.3600       310
    31.3800       214
    31.4000       134
    31.4200       104
    31.4400        92
    31.4600        92
    31.4800        90
    31.5000        84
    31.5200        82
    31.5400        84
    31.5600        96
    31.5800        80
    31.6000        96
    31.6200        78
    31.6400        70
    31.6600        74
    31.6800        68
    31.7000        70
    31.7200        64
    31.7400        80
    31.7600        74
    31.7800        70
    31.8000        80
    31.8200        78
    31.8400        84
    31.8600        98
    31.8800       120
    31.9000       138
    31.9200       122
    31.9400       168
    31.9600       188
    31.9800       250
    32.0000       296
    32.0200       394
    32.0400       578
    32.0600       712
    32.0800       924
    32.1000      1136
    32.1200      1376
    32.1400      1628
    32.1600      1992
    32.1800      2092
    32.2000      1946
    32.2200      1572
    32.2400      1298
    32.2600      1170
    32.2800       926
    32.3000       588
    32.3200       354
    32.3400       268
    32.3600       174
    32.3800       138
    32.4000       106
    32.4200        90
    32.4400        84
    32.4600        92
    32.4800        76
    32.5000        64
    32.5200        58
    32.5400        54
    32.5600        64
    32.5800        56
    32.6000        62
    32.6200        54
    32.6400        76
    32.6600        68
    32.6800        46
    32.7000        64
    32.7200        54
    32.7400        72
    32.7600        48
    32.7800        66
    32.8000        48
    32.8200        38
    32.8400        36
    32.8600        36
    32.8800        42
    32.9000        38
    32.9200        36
    32.9400        38
    32.9600        44
    32.9800        36
    33.0000        28
    33.0200        30
    33.0400        30
    33.0600        40
    33.0800        38
    33.1000        34
    33.1200        26
    33.1400        44
    33.1600        24
    33.1800        30
    33.2000        38
    33.2200        32
    33.2400        20
    33.2600        30
    33.2800        22
    33.3000        36
    33.3200        34
    33.3400        24
    33.3600        18
    33.3800        28
    33.4000        26
    33.4200        28
    33.4400        28
    33.4600        24
    33.4800        36
    33.5000        28
    33.5200        42
    33.5400        32
    33.5600        32
    33.5800        30
    33.6000        24
    33.6200        46
    33.6400        32
    33.6600        32
    33.6800        36
    33.7000        48
    33.7200        42
    33.7400        30
    33.7600        48
    33.7800        46
    33.8000        54
    33.8200        68
    33.8400        82
    33.8600        92
    33.8800       140
    33.9000       154
    33.9200       186
    33.9400       174
    33.9600       218
    33.9800       188
    34.0000       178
    34.0200       124
    34.0400       118
    34.0600       110
    34.0800        84
    34.1000        66
    34.1200        46
    34.1400        44
    34.1600        34
    34.1800        32
    34.2000        34
    34.2200        42
    34.2400        30
    34.2600        34
    34.2800        18
    34.3000        32
    34.3200        28
    34.3400        32
    34.3600        30
    34.3800        38
    34.4000        32
    34.4200        36
    34.4400        34
    34.4600        42
    34.4800        32
    34.5000        30
    34.5200        28
    34.5400        28
    34.5600        36
    34.5800        24
    34.6000        26
    34.6200        42
    34.6400        30
    34.6600        38
    34.6800        34
    34.7000        34
    34.7200        44
    34.7400        48
    34.7600        62
    34.7800        76
    34.8000        80
    34.8200        76
    34.8400        86
    34.8600        80
    34.8800        74
    34.9000        78
    34.9200        60
    34.9400        58
    34.9600        42
    34.9800        40
    35.0000        36
    35.0200        32
    35.0400        30
    35.0600        36
    35.0800        28
    35.1000        24
    35.1200        34
    35.1400        32
    35.1600        34
    35.1800        42
    35.2000        20
    35.2200        32
    35.2400        24
    35.2600        32
    35.2800        28
    35.3000        28
    35.3200        22
    35.3400        34
    35.3600        22
    35.3800        32
    35.4000        26
    35.4200        24
    35.4400        22
    35.4600        34
    35.4800        24
    35.5000        38
    35.5200        34
    35.5400        20
    35.5600        24
    35.5800        26
    35.6000        34
    35.6200        32
    35.6400        34
    35.6600        44
    35.6800        34
    35.7000        16
    35.7200        20
    35.7400        30
    35.7600        26
    35.7800        16
    35.8000        18
    35.8200        28
    35.8400        28
    35.8600        28
    35.8800        32
    35.9000        30
    35.9200        30
    35.9400        36
    35.9600        30
    35.9800        28
    36.0000        40
    36.0200        26
    36.0400        24
    36.0600        42
    36.0800        36
    36.1000        38
    36.1200        34
    36.1400        24
    36.1600        30
    36.1800        48
    36.2000        28
    36.2200        18
    36.2400        44
    36.2600        26
    36.2800        28
    36.3000        38
    36.3200        40
    36.3400        30
    36.3600        30
    36.3800        40
    36.4000        32
    36.4200        26
    36.4400        28
    36.4600        20
    36.4800        34
    36.5000        32
    36.5200        40
    36.5400        42
    36.5600        34
    36.5800        28
    36.6000        20
    36.6200        30
    36.6400        28
    36.6600        34
    36.6800        28
    36.7000        30
    36.7200        24
    36.7400        36
    36.7600        26
    36.7800        30
    36.8000        30
    36.8200        28
    36.8400        28
    36.8600        26
    36.8800        40
    36.9000        26
    36.9200        32
    36.9400        24
    36.9600        20
    36.9800        28
    37.0000        30
    37.0200        20
    37.0400        26
    37.0600        24
    37.0800        24
    37.1000        42
    37.1200        22
    37.1400        28
    37.1600        36
    37.1800        32
    37.2000        20
    37.2200        26
    37.2400        38
    37.2600        36
    37.2800        38
    37.3000        30
    37.3200        22
    37.3400        38
    37.3600        22
    37.3800        20
    37.4000        32
    37.4200        32
    37.4400        30
    37.4600        24
    37.4800        30
    37.5000        32
    37.5200        22
    37.5400        36
    37.5600        22
    37.5800        34
    37.6000        22
    37.6200        26
    37.6400        14
    37.6600        26
    37.6800        22
    37.7000        32
    37.7200        34
    37.7400        36
    37.7600        34
    37.7800        28
    37.8000        26
    37.8200        32
    37.8400        24
    37.8600        20
    37.8800        30
    37.9000        26
    37.9200        32
    37.9400        26
    37.9600        32
    37.9800        28
    38.0000        36
    38.0200        46
    38.0400        38
    38.0600        36
    38.0800        18
    38.1000        24
    38.1200        32
    38.1400        24
    38.1600        26
    38.1800        24
    38.2000        26
    38.2200        20
    38.2400        22
    38.2600        30
    38.2800        28
    38.3000        18
    38.3200        26
    38.3400        34
    38.3600        20
    38.3800        22
    38.4000        26
    38.4200        24
    38.4400        22
    38.4600        34
    38.4800        30
    38.5000        38
    38.5200        22
    38.5400        30
    38.5600        28
    38.5800        40
    38.6000        30
    38.6200        36
    38.6400        40
    38.6600        56
    38.6800        48
    38.7000        44
    38.7200        62
    38.7400        76
    38.7600        86
    38.7800        92
    38.8000        88
    38.8200       164
    38.8400       160
    38.8600       234
    38.8800       252
    38.9000       316
    38.9200       304
    38.9400       326
    38.9600       242
    38.9800       222
    39.0000       226
    39.0200       178
    39.0400       152
    39.0600       130
    39.0800       100
    39.1000        56
    39.1200        50
    39.1400        40
    39.1600        38
    39.1800        42
    39.2000        36
    39.2200        50
    39.2400        42
    39.2600        38
    39.2800        24
    39.3000        28
    39.3200        22
    39.3400        40
    39.3600        34
    39.3800        34
    39.4000        36
    39.4200        36
    39.4400        34
    39.4600        36
    39.4800        38
    39.5000        46
    39.5200        34
    39.5400        38
    39.5600        34
    39.5800        40
    39.6000        36
    39.6200        40
    39.6400        40
    39.6600        50
    39.6800        32
    39.7000        38
    39.7200        40
    39.7400        34
    39.7600        48
    39.7800        40
    39.8000        18
    39.8200        24
    39.8400        30
    39.8600        32
    39.8800        26
    39.9000        22
    39.9200        28
    39.9400        30
    39.9600        30
    39.9800        36
    40.0000        22
    40.0200        24
    40.0400        28
    40.0600        28
    40.0800        24
    40.1000        36
    40.1200        26
    40.1400        38
    40.1600        30
    40.1800        44
    40.2000        24
    40.2200        24
    40.2400        28
    40.2600        38
    40.2800        22
    40.3000        34
    40.3200        26
    40.3400        16
    40.3600        30
    40.3800        20
    40.4000        32
    40.4200        24
    40.4400        26
    40.4600        22
    40.4800        14
    40.5000        30
    40.5200        22
    40.5400        20
    40.5600        30
    40.5800        20
    40.6000        20
    40.6200        28
    40.6400        26
    40.6600        28
    40.6800        24
    40.7000        32
    40.7200        26
    40.7400        24
    40.7600        16
    40.7800        26
    40.8000        30
    40.8200        24
    40.8400        22
    40.8600        28
    40.8800        28
    40.9000        36
    40.9200        34
    40.9400        40
    40.9600        26
    40.9800        28
    41.0000        24
    41.0200        30
    41.0400        44
    41.0600        40
    41.0800        70
    41.1000        60
    41.1200        98
    41.1400       104
    41.1600       126
    41.1800       158
    41.2000       172
    41.2200       164
    41.2400       176
    41.2600       156
    41.2800       146
    41.3000       100
    41.3200        96
    41.3400        90
    41.3600        56
    41.3800        54
    41.4000        48
    41.4200        32
    41.4400        32
    41.4600        36
    41.4800        24
    41.5000        26
    41.5200        36
    41.5400        22
    41.5600        36
    41.5800        20
    41.6000        26
    41.6200        26
    41.6400        22
    41.6600        38
    41.6800        22
    41.7000        20
    41.7200        32
    41.7400        16
    41.7600        30
    41.7800        28
    41.8000        36
    41.8200        56
    41.8400        46
    41.8600        46
    41.8800        46
    41.9000        60
    41.9200        56
    41.9400        76
    41.9600        76
    41.9800        90
    42.0000        72
    42.0200        50
    42.0400        54
    42.0600        48
    42.0800        42
    42.1000        40
    42.1200        32
    42.1400        38
    42.1600        30
    42.1800        20
    42.2000        24
    42.2200        28
    42.2400        30
    42.2600        20
    42.2800        28
    42.3000        24
    42.3200        24
    42.3400        28
    42.3600        26
    42.3800        18
    42.4000        30
    42.4200        36
    42.4400        28
    42.4600        28
    42.4800        28
    42.5000        30
    42.5200        30
    42.5400        20
    42.5600        26
    42.5800        22
    42.6000        28
    42.6200        16
    42.6400        24
    42.6600        28
    42.6800        30
    42.7000        22
    42.7200        34
    42.7400        38
    42.7600        20
    42.7800        26
    42.8000        20
    42.8200        20
    42.8400        36
    42.8600        24
    42.8800        34
    42.9000        18
    42.9200        28
    42.9400        22
    42.9600        20
    42.9800        28
    43.0000        30
    43.0200        26
    43.0400        28
    43.0600        22
    43.0800        26
    43.1000        26
    43.1200        28
    43.1400        32
    43.1600        24
    43.1800        20
    43.2000        26
    43.2200        22
    43.2400        36
    43.2600        18
    43.2800        24
    43.3000        26
    43.3200        26
    43.3400        24
    43.3600        42
    43.3800        36
    43.4000        50
    43.4200        44
    43.4400        44
    43.4600        32
    43.4800        32
    43.5000        26
    43.5200        38
    43.5400        36
    43.5600        26
    43.5800        26
    43.6000        24
    43.6200        30
    43.6400        28
    43.6600        24
    43.6800        30
    43.7000        30
    43.7200        28
    43.7400        24
    43.7600        20
    43.7800        34
    43.8000        34
    43.8200        28
    43.8400        30
    43.8600        34
    43.8800        26
    43.9000        34
    43.9200        36
    43.9400        30
    43.9600        42
    43.9800        44
    44.0000        52
    44.0200        46
    44.0400        58
    44.0600       100
    44.0800       122
    44.1000       132
    44.1200       108
    44.1400       110
    44.1600       100
    44.1800        78
    44.2000        90
    44.2200       106
    44.2400        94
    44.2600        50
    44.2800        42
    44.3000        44
    44.3200        32
    44.3400        50
    44.3600        26
    44.3800        20
    44.4000        36
    44.4200        24
    44.4400        28
    44.4600        28
    44.4800        22
    44.5000        12
    44.5200        24
    44.5400        28
    44.5600        28
    44.5800        24
    44.6000        32
    44.6200        26
    44.6400        32
    44.6600        22
    44.6800        32
    44.7000        22
    44.7200        18
    44.7400        26
    44.7600        24
    44.7800        24
    44.8000        28
    44.8200        30
    44.8400        34
    44.8600        30
    44.8800        26
    44.9000        36
    44.9200        20
    44.9400        22
    44.9600        28
    44.9800        26
    45.0000        22
    45.0200        26
    45.0400        20
    45.0600        26
    45.0800        28
    45.1000        18
    45.1200        22
    45.1400        32
    45.1600        36
    45.1800        28
    45.2000        26
    45.2200        30
    45.2400        32
    45.2600        32
    45.2800        28
    45.3000        30
    45.3200        34
    45.3400        20
    45.3600        34
    45.3800        32
    45.4000        46
    45.4200        36
    45.4400        72
    45.4600        76
    45.4800        74
    45.5000        64
    45.5200        80
    45.5400        62
    45.5600        64
    45.5800        48
    45.6000        58
    45.6200        48
    45.6400        42
    45.6600        52
    45.6800        40
    45.7000        36
    45.7200        26
    45.7400        32
    45.7600        20
    45.7800        26
    45.8000        30
    45.8200        34
    45.8400        34
    45.8600        34
    45.8800        32
    45.9000        40
    45.9200        44
    45.9400        52
    45.9600        50
    45.9800        58
    46.0000        78
    46.0200       100
    46.0400        90
    46.0600       160
    46.0800       230
    46.1000       312
    46.1200       380
    46.1400       414
    46.1600       502
    46.1800       566
    46.2000       516
    46.2200       462
    46.2400       348
    46.2600       316
    46.2800       316
    46.3000       290
    46.3200       280
    46.3400       172
    46.3600       120
    46.3800        96
    46.4000        62
    46.4200        38
    46.4400        42
    46.4600        48
    46.4800        38
    46.5000        54
    46.5200        36
    46.5400        42
    46.5600        52
    46.5800        32
    46.6000        48
    46.6200        42
    46.6400        30
    46.6600        32
    46.6800        34
    46.7000        26
    46.7200        30
    46.7400        32
    46.7600        32
    46.7800        32
    46.8000        20
    46.8200        28
    46.8400        26
    46.8600        22
    46.8800        24
    46.9000        30
    46.9200        28
    46.9400        24
    46.9600        38
    46.9800        20
    47.0000        26
    47.0200        32
    47.0400        26
    47.0600        20
    47.0800        22
    47.1000        34
    47.1200        22
    47.1400        18
    47.1600        28
    47.1800        18
    47.2000        38
    47.2200        20
    47.2400        30
    47.2600        40
    47.2800        38
    47.3000        18
    47.3200        42
    47.3400        34
    47.3600        58
    47.3800        56
    47.4000        62
    47.4200        84
    47.4400        80
    47.4600       120
    47.4800       110
    47.5000       150
    47.5200       150
    47.5400       120
    47.5600        88
    47.5800        80
    47.6000        74
    47.6200        82
    47.6400        96
    47.6600        80
    47.6800        56
    47.7000        46
    47.7200        52
    47.7400        36
    47.7600        24
    47.7800        30
    47.8000        34
    47.8200        30
    47.8400        42
    47.8600        34
    47.8800        36
    47.9000        32
    47.9200        34
    47.9400        26
    47.9600        28
    47.9800        36
    48.0000        30
    48.0200        34
    48.0400        40
    48.0600        20
    48.0800        32
    48.1000        26
    48.1200        34
    48.1400        28
    48.1600        16
    48.1800        16
    48.2000        18
    48.2200        18
    48.2400        28
    48.2600        32
    48.2800        26
    48.3000        30
    48.3200        30
    48.3400        28
    48.3600        24
    48.3800        24
    48.4000        22
    48.4200        30
    48.4400        26
    48.4600        18
    48.4800        36
    48.5000        34
    48.5200        30
    48.5400        20
    48.5600        24
    48.5800        32
    48.6000        24
    48.6200        22
    48.6400        24
    48.6600        26
    48.6800        34
    48.7000        28
    48.7200        32
    48.7400        22
    48.7600        16
    48.7800        26
    48.8000        26
    48.8200        30
    48.8400        28
    48.8600        38
    48.8800        26
    48.9000        28
    48.9200        26
    48.9400        28
    48.9600        22
    48.9800        14
    49.0000        40
    49.0200        36
    49.0400        34
    49.0600        18
    49.0800        26
    49.1000        42
    49.1200        30
    49.1400        42
    49.1600        38
    49.1800        46
    49.2000        42
    49.2200        72
    49.2400        46
    49.2600        72
    49.2800        72
    49.3000        98
    49.3200        88
    49.3400       104
    49.3600       148
    49.3800       174
    49.4000       304
    49.4200       394
    49.4400       526
    49.4600       586
    49.4800       604
    49.5000       542
    49.5200       436
    49.5400       416
    49.5600       372
    49.5800       354
    49.6000       368
    49.6200       326
    49.6400       272
    49.6600       226
    49.6800       164
    49.7000       100
    49.7200        84
    49.7400        56
    49.7600        60
    49.7800        50
    49.8000        42
    49.8200        52
    49.8400        36
    49.8600        52
    49.8800        42
    49.9000        46
    49.9200        64
    49.9400        54
    49.9600        62
    49.9800        44
    50.0000        88
    50.0200        94
    50.0400       120
    50.0600       110
    50.0800       132
    50.1000       178
    50.1200       148
    50.1400       150
    50.1600       124
    50.1800       126
    50.2000       128
    50.2200       112
    50.2400        96
    50.2600       108
    50.2800        82
    50.3000        70
    50.3200        62
    50.3400        60
    50.3600        58
    50.3800        40
    50.4000        44
    50.4200        30
    50.4400        36
    50.4600        20
    50.4800        26
    50.5000        26
    50.5200        30
    50.5400        24
    50.5600        34
    50.5800        36
    50.6000        20
    50.6200        20
    50.6400        26
    50.6600        28
    50.6800        26
    50.7000        22
    50.7200        22
    50.7400        20
    50.7600        14
    50.7800        16
    50.8000        22
    50.8200        38
    50.8400        24
    50.8600        26
    50.8800        30
    50.9000        26
    50.9200        30
    50.9400        34
    50.9600        24
    50.9800        26
    51.0000        26
    51.0200        36
    51.0400        30
    51.0600        30
    51.0800        28
    51.1000        28
    51.1200        38
    51.1400        32
    51.1600        34
    51.1800        30
    51.2000        34
    51.2200        28
    51.2400        40
    51.2600        40
    51.2800        60
    51.3000        60
    51.3200        70
    51.3400       100
    51.3600       132
    51.3800       106
    51.4000       116
    51.4200       108
    51.4400        84
    51.4600        94
    51.4800        80
    51.5000        78
    51.5200        56
    51.5400        76
    51.5600        70
    51.5800        54
    51.6000        38
    51.6200        40
    51.6400        30
    51.6600        34
    51.6800        28
    51.7000        30
    51.7200        26
    51.7400        18
    51.7600        30
    51.7800        28
    51.8000        26
    51.8200        24
    51.8400        24
    51.8600        24
    51.8800        32
    51.9000        36
    51.9200        32
    51.9400        42
    51.9600        42
    51.9800        50
    52.0000        50
    52.0200        34
    52.0400        44
    52.0600        40
    52.0800        48
    52.1000        32
    52.1200        40
    52.1400        30
    52.1600        30
    52.1800        32
    52.2000        26
    52.2200        30
    52.2400        38
    52.2600        22
    52.2800        16
    52.3000        22
    52.3200        30
    52.3400        20
    52.3600        24
    52.3800        26
    52.4000        26
    52.4200        20
    52.4400        24
    52.4600        32
    52.4800        16
    52.5000        26
    52.5200        24
    52.5400        18
    52.5600        22
    52.5800        14
    52.6000        18
    52.6200        22
    52.6400        16
    52.6600        12
    52.6800        26
    52.7000        22
    52.7200        10
    52.7400        26
    52.7600        18
    52.7800        16
    52.8000        24
    52.8200        20
    52.8400        18
    52.8600        32
    52.8800        32
    52.9000        28
    52.9200        26
    52.9400        28
    52.9600        28
    52.9800        32
    53.0000        24
    53.0200        24
    53.0400        20
    53.0600        32
    53.0800        22
    53.1000        22
    53.1200        32
    53.1400        38
    53.1600        24
    53.1800        34
    53.2000        26
    53.2200        26
    53.2400        34
    53.2600        28
    53.2800        30
    53.3000        42
    53.3200        28
    53.3400        26
    53.3600        20
    53.3800        22
    53.4000        22
    53.4200        16
    53.4400        18
    53.4600        22
    53.4800        28
    53.5000        28
    53.5200        20
    53.5400        34
    53.5600        36
    53.5800        26
    53.6000        24
    53.6200        30
    53.6400        38
    53.6600        26
    53.6800        34
    53.7000        44
    53.7200        36
    53.7400        48
    53.7600        50
    53.7800        68
    53.8000        90
    53.8200       126
    53.8400       144
    53.8600       140
    53.8800       130
    53.9000       140
    53.9200       104
    53.9400       144
    53.9600       116
    53.9800       108
    54.0000        94
    54.0200        94
    54.0400        80
    54.0600        64
    54.0800        86
    54.1000        56
    54.1200        52
    54.1400        26
    54.1600        40
    54.1800        24
    54.2000        30
    54.2200        28
    54.2400        24
    54.2600        34
    54.2800        26
    54.3000        22
    54.3200        26
    54.3400        26
    54.3600        28
    54.3800        32
    54.4000        26
    54.4200        24
    54.4400        24
    54.4600        24
    54.4800        22
    54.5000        28
    54.5200        24
    54.5400        26
    54.5600        30
    54.5800        28
    54.6000        28
    54.6200        30
    54.6400        26
    54.6600        28
    54.6800        26
    54.7000        26
    54.7200        36
    54.7400        22
    54.7600        22
    54.7800        24
    54.8000        28
    54.8200        22
    54.8400        20
    54.8600        28
    54.8800        30
    54.9000        30
    54.9200        22
    54.9400        44
    54.9600        30
    54.9800        36
    55.0000        48
    55.0200        58
    55.0400        78
    55.0600        86
    55.0800        94
    55.1000        84
    55.1200        84
    55.1400        52
    55.1600        50
    55.1800        50
    55.2000        60
    55.2200        58
    55.2400        48
    55.2600        46
    55.2800        42
    55.3000        26
    55.3200        30
    55.3400        38
    55.3600        24
    55.3800        30
    55.4000        28
    55.4200        18
    55.4400        24
    55.4600        18
    55.4800        32
    55.5000        16
    55.5200        28
    55.5400        20
    55.5600        26
    55.5800        26
    55.6000        32
    55.6200        22
    55.6400        24
    55.6600        20
    55.6800        32
    55.7000        26
    55.7200        20
    55.7400        24
    55.7600        28
    55.7800        22
    55.8000        22
    55.8200        24
    55.8400        30
    55.8600        30
    55.8800        24
    55.9000        16
    55.9200        20
    55.9400        20
    55.9600        18
    55.9800        16
    56.0000        34
    56.0200        24
    56.0400        24
    56.0600        28
    56.0800        24
    56.1000        20
    56.1200        24
    56.1400        18
    56.1600        14
    56.1800        22
    56.2000        18
    56.2200        16
    56.2400        28
    56.2600        24
    56.2800        34
    56.3000        28
    56.3200        22
    56.3400        24
    56.3600        24
    56.3800        28
    56.4000        16
    56.4200        30
    56.4400        22
    56.4600        24
    56.4800        20
    56.5000        22
    56.5200        34
    56.5400        32
    56.5600        22
    56.5800        30
    56.6000        26
    56.6200        26
    56.6400        26
    56.6600        26
    56.6800        36
    56.7000        42
    56.7200        44
    56.7400        38
    56.7600        76
    56.7800        98
    56.8000       110
    56.8200       116
    56.8400       108
    56.8600       114
    56.8800       120
    56.9000        80
    56.9200        74
    56.9400        78
    56.9600        78
    56.9800        86
    57.0000        78
    57.0200        72
    57.0400        52
    57.0600        36
    57.0800        36
    57.1000        20
    57.1200        30
    57.1400        28
    57.1600        28
    57.1800        20
    57.2000        30
    57.2200        34
    57.2400        34
    57.2600        30
    57.2800        26
    57.3000        40
    57.3200        38
    57.3400        42
    57.3600        64
    57.3800        88
    57.4000        82
    57.4200        94
    57.4400        88
    57.4600        66
    57.4800        72
    57.5000        46
    57.5200        56
    57.5400        64
    57.5600        70
    57.5800        60
    57.6000        56
    57.6200        42
    57.6400        34
    57.6600        30
    57.6800        36
    57.7000        28
    57.7200        38
    57.7400        24
    57.7600        20
    57.7800        28
    57.8000        26
    57.8200        28
    57.8400        24
    57.8600        28
    57.8800        26
    57.9000        34
    57.9200        28
    57.9400        20
    57.9600        24
    57.9800        26
    58.0000        20
    58.0200        20
    58.0400        28
    58.0600        22
    58.0800        22
    58.1000        22
    58.1200        24
    58.1400        20
    58.1600        18
    58.1800        20
    58.2000        32
    58.2200        24
    58.2400        28
    58.2600        22
    58.2800        24
    58.3000        22
    58.3200        16
    58.3400        28
    58.3600        26
    58.3800        28
    58.4000        22
    58.4200        30
    58.4400        28
    58.4600        34
    58.4800        32
    58.5000        58
    58.5200        78
    58.5400        56
    58.5600        84
    58.5800        58
    58.6000        62
    58.6200        58
    58.6400        58
    58.6600        34
    58.6800        42
    58.7000        54
    58.7200        52
    58.7400        46
    58.7600        42
    58.7800        40
    58.8000        16
    58.8200        46
    58.8400        28
    58.8600        20
    58.8800        30
    58.9000        18
    58.9200        22
    58.9400        28
    58.9600        38
    58.9800        24
    59.0000        18
    59.0200        24
    59.0400        24
    59.0600        28
    59.0800        42
    59.1000        40
    59.1200        42
    59.1400        46
    59.1600        56
    59.1800        48
    59.2000        46
    59.2200        48
    59.2400        36
    59.2600        28
    59.2800        32
    59.3000        50
    59.3200        34
    59.3400        32
    59.3600        40
    59.3800        32
    59.4000        34
    59.4200        22
    59.4400        30
    59.4600        30
    59.4800        28
    59.5000        24
    59.5200        18
    59.5400        20
    59.5600        14
    59.5800        22
    59.6000        20
    59.6200        26
    59.6400        18
    59.6600        22
    59.6800        20
    59.7000        20
    59.7200        40
    59.7400        22
    59.7600        32
    59.7800        24
    59.8000        28
    59.8200        34
    59.8400        34
    59.8600        22
    59.8800        28
    59.9000        22
    59.9200        20
    59.9400        22
    59.9600        26
    59.9800        36
    60.0000        30
    60.0200        34
    60.0400        22
    60.0600        26
    60.0800        28
    60.1000        28
    60.1200        32
    60.1400        30
    60.1600        36
    60.1800        34
    60.2000        34
    60.2200        70
    60.2400        54
    60.2600        64
    60.2800        66
    60.3000        76
    60.3200        56
    60.3400        58
    60.3600        44
    60.3800        42
    60.4000        50
    60.4200        56
    60.4400        50
    60.4600        52
    60.4800        50
    60.5000        44
    60.5200        28
    60.5400        22
    60.5600        34
    60.5800        28
    60.6000        30
    60.6200        32
    60.6400        32
    60.6600        26
    60.6800        20
    60.7000        24
    60.7200        14
    60.7400        28
    60.7600        28
    60.7800        28
    60.8000        26
    60.8200        32
    60.8400        40
    60.8600        30
    60.8800        18
    60.9000        18
    60.9200        24
    60.9400        28
    60.9600        30
    60.9800        20
    61.0000        22
    61.0200        16
    61.0400        30
    61.0600        20
    61.0800        26
    61.1000        24
    61.1200        18
    61.1400        22
    61.1600        28
    61.1800        18
    61.2000        22
    61.2200        24
    61.2400        14
    61.2600        20
    61.2800        24
    61.3000        30
    61.3200        22
    61.3400        24
    61.3600        20
    61.3800        22
    61.4000        18
    61.4200        20
    61.4400        18
    61.4600        22
    61.4800        26
    61.5000        20
    61.5200        24
    61.5400        18
    61.5600        28
    61.5800        22
    61.6000        24
    61.6200        22
    61.6400        20
    61.6600        32
    61.6800        32
    61.7000        32
    61.7200        22
    61.7400        32
    61.7600        32
    61.7800        20
    61.8000        28
    61.8200        20
    61.8400        38
    61.8600        42
    61.8800        50
    61.9000        64
    61.9200        84
    61.9400       110
    61.9600       124
    61.9800       132
    62.0000       122
    62.0200       106
    62.0400        78
    62.0600        68
    62.0800        78
    62.1000        66
    62.1200        90
    62.1400        70
    62.1600        66
    62.1800        56
    62.2000        70
    62.2200        42
    62.2400        40
    62.2600        30
    62.2800        34
    62.3000        24
    62.3200        26
    62.3400        32
    62.3600        20
    62.3800        22
    62.4000        26
    62.4200        26
    62.4400        28
    62.4600        22
    62.4800        34
    62.5000        20
    62.5200        22
    62.5400        24
    62.5600        30
    62.5800        26
    62.6000        16
    62.6200        16
    62.6400        26
    62.6600        24
    62.6800        24
    62.7000        30
    62.7200        20
    62.7400        16
    62.7600        36
    62.7800        30
    62.8000        22
    62.8200        20
    62.8400        22
    62.8600        30
    62.8800        26
    62.9000        28
    62.9200        24
    62.9400        24
    62.9600        34
    62.9800        20
    63.0000        26
    63.0200        32
    63.0400        26
    63.0600        32
    63.0800        20
    63.1000        28
    63.1200        20
    63.1400        24
    63.1600        30
    63.1800        22
    63.2000        26
    63.2200        32
    63.2400        22
    63.2600        30
    63.2800        38
    63.3000        26
    63.3200        28
    63.3400        32
    63.3600        26
    63.3800        36
    63.4000        32
    63.4200        28
    63.4400        30
    63.4600        40
    63.4800        46
    63.5000        56
    63.5200        76
    63.5400        96
    63.5600       136
    63.5800       148
    63.6000       146
    63.6200       174
    63.6400       144
    63.6600       114
    63.6800       100
    63.7000        78
    63.7200        86
    63.7400       104
    63.7600        90
    63.7800        96
    63.8000       106
    63.8200        98
    63.8400        88
    63.8600        62
    63.8800        54
    63.9000        36
    63.9200        34
    63.9400        40
    63.9600        32
    63.9800        40
    64.0000        54
    64.0200        28
    64.0400        38
    64.0600        42
    64.0800        54
    64.1000        58
    64.1200        74
    64.1400       112
    64.1600       130
    64.1800       124
    64.2000       116
    64.2200        88
    64.2400        76
    64.2600        76
    64.2800        50
    64.3000        52
    64.3200        62
    64.3400        66
    64.3600        88
    64.3800        54
    64.4000        54
    64.4200        40
    64.4400        38
    64.4600        26
    64.4800        26
    64.5000        22
    64.5200        30
    64.5400        30
    64.5600        28
    64.5800        28
    64.6000        32
    64.6200        22
    64.6400        24
    64.6600        18
    64.6800        24
    64.7000        14
    64.7200        30
    64.7400        26
    64.7600        34
    64.7800        26
    64.8000        36
    64.8200        18
    64.8400        24
    64.8600        24
    64.8800        22
    64.9000        32
    64.9200        22
    64.9400        28
    64.9600        28
    64.9800        28
    65.0000        28
