/////////////////////////////////////////////////////////////////////////////////
/// Profile Data Ascii Dump (XRD)                                             ///
/////////////////////////////////////////////////////////////////////////////////

  Group     : Swayze
  Data      : WS588
  File Name : WS588.RAW

# Profile Datafile
          comment             = Diopside-Todd 
          date & time         = 08-04-15 06:50:20 

# Measurement Condition
    X-ray tube
          target              = Cu 
          voltage             = 40.0 (kV)
          current             = 30.0 (mA)
    Slits
          divergence slit     = 2.00000 (deg) 
          scatter slit        = 2.00000 (deg) 
          receiving slit      = 0.15000 (mm)  
    Scanning
          drive axis          = Theta-2Theta 
          scan range          =    4.000 -   65.000 
          scan mode           = Continuous Scan 
          scan speed          =   2.0000 (deg/min) 
          sampling pitch      =   0.0200 (deg) 
          preset time         =   0.60 (sec) 

# Data      [ Total No. = 3051 ]
  <2Theta>   <   I   >
     4.0000       188
     4.0200       198
     4.0400       198
     4.0600       216
     4.0800       190
     4.1000       204
     4.1200       180
     4.1400       190
     4.1600       178
     4.1800       204
     4.2000       172
     4.2200       180
     4.2400       188
     4.2600       180
     4.2800       180
     4.3000       190
     4.3200       172
     4.3400       188
     4.3600       168
     4.3800       180
     4.4000       162
     4.4200       168
     4.4400       164
     4.4600       176
     4.4800       176
     4.5000       146
     4.5200       178
     4.5400       174
     4.5600       182
     4.5800       160
     4.6000       172
     4.6200       174
     4.6400       170
     4.6600       156
     4.6800       176
     4.7000       182
     4.7200       188
     4.7400       168
     4.7600       174
     4.7800       174
     4.8000       148
     4.8200       166
     4.8400       152
     4.8600       170
     4.8800       188
     4.9000       168
     4.9200       170
     4.9400       168
     4.9600       168
     4.9800       164
     5.0000       180
     5.0200       180
     5.0400       188
     5.0600       172
     5.0800       160
     5.1000       146
     5.1200       144
     5.1400       168
     5.1600       184
     5.1800       194
     5.2000       180
     5.2200       150
     5.2400       166
     5.2600       166
     5.2800       182
     5.3000       164
     5.3200       156
     5.3400       166
     5.3600       138
     5.3800       170
     5.4000       178
     5.4200       158
     5.4400       176
     5.4600       144
     5.4800       162
     5.5000       166
     5.5200       144
     5.5400       168
     5.5600       154
     5.5800       162
     5.6000       164
     5.6200       138
     5.6400       148
     5.6600       162
     5.6800       152
     5.7000       170
     5.7200       156
     5.7400       148
     5.7600       158
     5.7800       182
     5.8000       142
     5.8200       162
     5.8400       156
     5.8600       150
     5.8800       128
     5.9000       168
     5.9200       154
     5.9400       142
     5.9600       196
     5.9800       146
     6.0000       156
     6.0200       170
     6.0400       154
     6.0600       158
     6.0800       152
     6.1000       160
     6.1200       178
     6.1400       146
     6.1600       136
     6.1800       174
     6.2000       150
     6.2200       168
     6.2400       132
     6.2600       162
     6.2800       134
     6.3000       136
     6.3200       138
     6.3400       154
     6.3600       150
     6.3800       144
     6.4000       144
     6.4200       138
     6.4400       146
     6.4600       152
     6.4800       156
     6.5000       152
     6.5200       152
     6.5400       148
     6.5600       134
     6.5800       158
     6.6000       136
     6.6200       124
     6.6400       144
     6.6600       142
     6.6800       136
     6.7000       122
     6.7200       142
     6.7400       126
     6.7600       138
     6.7800       138
     6.8000       104
     6.8200       116
     6.8400       142
     6.8600       130
     6.8800       138
     6.9000       120
     6.9200       104
     6.9400       124
     6.9600       136
     6.9800       124
     7.0000       116
     7.0200       108
     7.0400       132
     7.0600       100
     7.0800       122
     7.1000       124
     7.1200       128
     7.1400       106
     7.1600       130
     7.1800       132
     7.2000       106
     7.2200       116
     7.2400        94
     7.2600       118
     7.2800       114
     7.3000       120
     7.3200       114
     7.3400       100
     7.3600       136
     7.3800       146
     7.4000       104
     7.4200       110
     7.4400       118
     7.4600       120
     7.4800       104
     7.5000       130
     7.5200       106
     7.5400       102
     7.5600       108
     7.5800        98
     7.6000       116
     7.6200       110
     7.6400       100
     7.6600       118
     7.6800       110
     7.7000       110
     7.7200       120
     7.7400       112
     7.7600       106
     7.7800       122
     7.8000       116
     7.8200        98
     7.8400       106
     7.8600       126
     7.8800       132
     7.9000       114
     7.9200       126
     7.9400       104
     7.9600        92
     7.9800       122
     8.0000       114
     8.0200       124
     8.0400       102
     8.0600       102
     8.0800       118
     8.1000       130
     8.1200       128
     8.1400       120
     8.1600       112
     8.1800       128
     8.2000       124
     8.2200       114
     8.2400       110
     8.2600        98
     8.2800        94
     8.3000       112
     8.3200       118
     8.3400       118
     8.3600       106
     8.3800       124
     8.4000       116
     8.4200       128
     8.4400       102
     8.4600       108
     8.4800       118
     8.5000        94
     8.5200       106
     8.5400       118
     8.5600       104
     8.5800       138
     8.6000       136
     8.6200       114
     8.6400       106
     8.6600       130
     8.6800       124
     8.7000       130
     8.7200       136
     8.7400       118
     8.7600        98
     8.7800       134
     8.8000       116
     8.8200       110
     8.8400       136
     8.8600       108
     8.8800       124
     8.9000       100
     8.9200       122
     8.9400       122
     8.9600       122
     8.9800       112
     9.0000       120
     9.0200       116
     9.0400       106
     9.0600       118
     9.0800       132
     9.1000       118
     9.1200       126
     9.1400        98
     9.1600       118
     9.1800       130
     9.2000       106
     9.2200       114
     9.2400       100
     9.2600       126
     9.2800       110
     9.3000       106
     9.3200       104
     9.3400       104
     9.3600       126
     9.3800       134
     9.4000       100
     9.4200       120
     9.4400       108
     9.4600       114
     9.4800       114
     9.5000       122
     9.5200       114
     9.5400       126
     9.5600       130
     9.5800       138
     9.6000        88
     9.6200       108
     9.6400       124
     9.6600       112
     9.6800       108
     9.7000       102
     9.7200       104
     9.7400       130
     9.7600       116
     9.7800       120
     9.8000        92
     9.8200       114
     9.8400       122
     9.8600       120
     9.8800       106
     9.9000       132
     9.9200        98
     9.9400       108
     9.9600        92
     9.9800       124
    10.0000       116
    10.0200       116
    10.0400       122
    10.0600       112
    10.0800       110
    10.1000       110
    10.1200       122
    10.1400       104
    10.1600       152
    10.1800       112
    10.2000        96
    10.2200       120
    10.2400       108
    10.2600       130
    10.2800       114
    10.3000       126
    10.3200       116
    10.3400       128
    10.3600       140
    10.3800       136
    10.4000       120
    10.4200       138
    10.4400       114
    10.4600       120
    10.4800       124
    10.5000       122
    10.5200       102
    10.5400       106
    10.5600        76
    10.5800       102
    10.6000        96
    10.6200       108
    10.6400       104
    10.6600       106
    10.6800       110
    10.7000        82
    10.7200        80
    10.7400       112
    10.7600        86
    10.7800       106
    10.8000       104
    10.8200        90
    10.8400        88
    10.8600        92
    10.8800        98
    10.9000        68
    10.9200        74
    10.9400        94
    10.9600       110
    10.9800        74
    11.0000        98
    11.0200        96
    11.0400       112
    11.0600        78
    11.0800        88
    11.1000       100
    11.1200        90
    11.1400        90
    11.1600       110
    11.1800        88
    11.2000        84
    11.2200        82
    11.2400        82
    11.2600        78
    11.2800        84
    11.3000       100
    11.3200        84
    11.3400        70
    11.3600        74
    11.3800        78
    11.4000        84
    11.4200        68
    11.4400        84
    11.4600        98
    11.4800       112
    11.5000        86
    11.5200        94
    11.5400        98
    11.5600        80
    11.5800        86
    11.6000        70
    11.6200        88
    11.6400        68
    11.6600        86
    11.6800        98
    11.7000       102
    11.7200        86
    11.7400        72
    11.7600       102
    11.7800        82
    11.8000        84
    11.8200       100
    11.8400        84
    11.8600        94
    11.8800        74
    11.9000        80
    11.9200        82
    11.9400        88
    11.9600        84
    11.9800        80
    12.0000        74
    12.0200        74
    12.0400        84
    12.0600        88
    12.0800        70
    12.1000        86
    12.1200        90
    12.1400        80
    12.1600        96
    12.1800        88
    12.2000       104
    12.2200        92
    12.2400        86
    12.2600        82
    12.2800        68
    12.3000        76
    12.3200        90
    12.3400        84
    12.3600        70
    12.3800        72
    12.4000       100
    12.4200        78
    12.4400        82
    12.4600        74
    12.4800        78
    12.5000        70
    12.5200        90
    12.5400        82
    12.5600        64
    12.5800        66
    12.6000        62
    12.6200        80
    12.6400       100
    12.6600        70
    12.6800        80
    12.7000        68
    12.7200        92
    12.7400        70
    12.7600        84
    12.7800        80
    12.8000        66
    12.8200        74
    12.8400        96
    12.8600        66
    12.8800        70
    12.9000        68
    12.9200        70
    12.9400        72
    12.9600        66
    12.9800        70
    13.0000        70
    13.0200        84
    13.0400        68
    13.0600        80
    13.0800        72
    13.1000        62
    13.1200        70
    13.1400        64
    13.1600        76
    13.1800        92
    13.2000        72
    13.2200        64
    13.2400        90
    13.2600        78
    13.2800        82
    13.3000        92
    13.3200        84
    13.3400        88
    13.3600        72
    13.3800        80
    13.4000       100
    13.4200        90
    13.4400       102
    13.4600        86
    13.4800       110
    13.5000       140
    13.5200       142
    13.5400       186
    13.5600       190
    13.5800       210
    13.6000       200
    13.6200       162
    13.6400       118
    13.6600        82
    13.6800        98
    13.7000        74
    13.7200        84
    13.7400        88
    13.7600        74
    13.7800        60
    13.8000        68
    13.8200        62
    13.8400        58
    13.8600        76
    13.8800        76
    13.9000        62
    13.9200        68
    13.9400        80
    13.9600        64
    13.9800        76
    14.0000        60
    14.0200        62
    14.0400        62
    14.0600        54
    14.0800        54
    14.1000        76
    14.1200        48
    14.1400        58
    14.1600        78
    14.1800        58
    14.2000        60
    14.2200        74
    14.2400        60
    14.2600        56
    14.2800        68
    14.3000        72
    14.3200        52
    14.3400        66
    14.3600        56
    14.3800        84
    14.4000        68
    14.4200        62
    14.4400        62
    14.4600        50
    14.4800        60
    14.5000        52
    14.5200        70
    14.5400        60
    14.5600        58
    14.5800        64
    14.6000        58
    14.6200        70
    14.6400        68
    14.6600        56
    14.6800        72
    14.7000        64
    14.7200        54
    14.7400        68
    14.7600        60
    14.7800        64
    14.8000        72
    14.8200        70
    14.8400        64
    14.8600        66
    14.8800        76
    14.9000        56
    14.9200        64
    14.9400        70
    14.9600        58
    14.9800        72
    15.0000        76
    15.0200        86
    15.0400        68
    15.0600        56
    15.0800        54
    15.1000        60
    15.1200        66
    15.1400        56
    15.1600        54
    15.1800        68
    15.2000        72
    15.2200        78
    15.2400        54
    15.2600        60
    15.2800        66
    15.3000        64
    15.3200        32
    15.3400        74
    15.3600        70
    15.3800        44
    15.4000        62
    15.4200        68
    15.4400        58
    15.4600        72
    15.4800        60
    15.5000        58
    15.5200        48
    15.5400        42
    15.5600        60
    15.5800        38
    15.6000        70
    15.6200        58
    15.6400        62
    15.6600        68
    15.6800        54
    15.7000        52
    15.7200        60
    15.7400        56
    15.7600        40
    15.7800        66
    15.8000        60
    15.8200        50
    15.8400        66
    15.8600        52
    15.8800        50
    15.9000        52
    15.9200        60
    15.9400        52
    15.9600        52
    15.9800        54
    16.0000        50
    16.0200        50
    16.0400        56
    16.0600        60
    16.0800        36
    16.1000        50
    16.1200        60
    16.1400        50
    16.1600        62
    16.1800        60
    16.2000        44
    16.2200        46
    16.2400        60
    16.2600        70
    16.2800        58
    16.3000        60
    16.3200        54
    16.3400        46
    16.3600        52
    16.3800        52
    16.4000        46
    16.4200        62
    16.4400        58
    16.4600        48
    16.4800        44
    16.5000        62
    16.5200        46
    16.5400        66
    16.5600        66
    16.5800        48
    16.6000        50
    16.6200        48
    16.6400        50
    16.6600        56
    16.6800        70
    16.7000        54
    16.7200        54
    16.7400        58
    16.7600        58
    16.7800        62
    16.8000        48
    16.8200        50
    16.8400        54
    16.8600        52
    16.8800        52
    16.9000        48
    16.9200        64
    16.9400        42
    16.9600        64
    16.9800        56
    17.0000        52
    17.0200        58
    17.0400        60
    17.0600        62
    17.0800        40
    17.1000        48
    17.1200        56
    17.1400        54
    17.1600        56
    17.1800        50
    17.2000        50
    17.2200        58
    17.2400        60
    17.2600        50
    17.2800        64
    17.3000        66
    17.3200        54
    17.3400        52
    17.3600        70
    17.3800        60
    17.4000        54
    17.4200        54
    17.4400        50
    17.4600        54
    17.4800        54
    17.5000        54
    17.5200        56
    17.5400        62
    17.5600        62
    17.5800        48
    17.6000        68
    17.6200        56
    17.6400        46
    17.6600        50
    17.6800        58
    17.7000        58
    17.7200        50
    17.7400        38
    17.7600        58
    17.7800        44
    17.8000        68
    17.8200        56
    17.8400        58
    17.8600        50
    17.8800        52
    17.9000        44
    17.9200        58
    17.9400        54
    17.9600        50
    17.9800        62
    18.0000        70
    18.0200        58
    18.0400        44
    18.0600        44
    18.0800        54
    18.1000        58
    18.1200        70
    18.1400        46
    18.1600        66
    18.1800        42
    18.2000        54
    18.2200        66
    18.2400        60
    18.2600        56
    18.2800        42
    18.3000        46
    18.3200        78
    18.3400        52
    18.3600        50
    18.3800        48
    18.4000        46
    18.4200        60
    18.4400        52
    18.4600        56
    18.4800        72
    18.5000        56
    18.5200        76
    18.5400        68
    18.5600        54
    18.5800        44
    18.6000        66
    18.6200        64
    18.6400        70
    18.6600        74
    18.6800       108
    18.7000        84
    18.7200        98
    18.7400        98
    18.7600       100
    18.7800        98
    18.8000        88
    18.8200        96
    18.8400        70
    18.8600        86
    18.8800        64
    18.9000        58
    18.9200        52
    18.9400        52
    18.9600        44
    18.9800        62
    19.0000        48
    19.0200        56
    19.0400        58
    19.0600        48
    19.0800        44
    19.1000        58
    19.1200        44
    19.1400        56
    19.1600        54
    19.1800        50
    19.2000        58
    19.2200        50
    19.2400        58
    19.2600        66
    19.2800        54
    19.3000        48
    19.3200        54
    19.3400        62
    19.3600        60
    19.3800        46
    19.4000        66
    19.4200        44
    19.4400        58
    19.4600        68
    19.4800        52
    19.5000        64
    19.5200        64
    19.5400        66
    19.5600        66
    19.5800        62
    19.6000        58
    19.6200        70
    19.6400        78
    19.6600        66
    19.6800       102
    19.7000        92
    19.7200        98
    19.7400        88
    19.7600       100
    19.7800        98
    19.8000       102
    19.8200        94
    19.8400        72
    19.8600        70
    19.8800        54
    19.9000        50
    19.9200        66
    19.9400        54
    19.9600        52
    19.9800        46
    20.0000        56
    20.0200        48
    20.0400        52
    20.0600        56
    20.0800        48
    20.1000        48
    20.1200        58
    20.1400        50
    20.1600        50
    20.1800        54
    20.2000        44
    20.2200        46
    20.2400        44
    20.2600        42
    20.2800        40
    20.3000        56
    20.3200        48
    20.3400        42
    20.3600        44
    20.3800        48
    20.4000        46
    20.4200        50
    20.4400        42
    20.4600        56
    20.4800        46
    20.5000        50
    20.5200        64
    20.5400        46
    20.5600        58
    20.5800        48
    20.6000        60
    20.6200        44
    20.6400        46
    20.6600        56
    20.6800        60
    20.7000        70
    20.7200        56
    20.7400        72
    20.7600        78
    20.7800        74
    20.8000        68
    20.8200        60
    20.8400        78
    20.8600        72
    20.8800        60
    20.9000        62
    20.9200        52
    20.9400        54
    20.9600        62
    20.9800        46
    21.0000        48
    21.0200        50
    21.0400        48
    21.0600        38
    21.0800        44
    21.1000        50
    21.1200        50
    21.1400        44
    21.1600        54
    21.1800        44
    21.2000        56
    21.2200        60
    21.2400        44
    21.2600        38
    21.2800        54
    21.3000        46
    21.3200        40
    21.3400        48
    21.3600        46
    21.3800        54
    21.4000        42
    21.4200        46
    21.4400        32
    21.4600        40
    21.4800        54
    21.5000        38
    21.5200        42
    21.5400        58
    21.5600        44
    21.5800        44
    21.6000        58
    21.6200        44
    21.6400        50
    21.6600        30
    21.6800        44
    21.7000        46
    21.7200        46
    21.7400        42
    21.7600        44
    21.7800        38
    21.8000        52
    21.8200        44
    21.8400        46
    21.8600        48
    21.8800        50
    21.9000        40
    21.9200        44
    21.9400        44
    21.9600        42
    21.9800        50
    22.0000        40
    22.0200        48
    22.0400        52
    22.0600        48
    22.0800        46
    22.1000        52
    22.1200        38
    22.1400        48
    22.1600        38
    22.1800        48
    22.2000        44
    22.2200        32
    22.2400        46
    22.2600        44
    22.2800        42
    22.3000        56
    22.3200        42
    22.3400        36
    22.3600        58
    22.3800        38
    22.4000        46
    22.4200        44
    22.4400        34
    22.4600        34
    22.4800        48
    22.5000        48
    22.5200        40
    22.5400        48
    22.5600        38
    22.5800        42
    22.6000        42
    22.6200        54
    22.6400        40
    22.6600        64
    22.6800        42
    22.7000        40
    22.7200        52
    22.7400        54
    22.7600        48
    22.7800        54
    22.8000        46
    22.8200        48
    22.8400        54
    22.8600        58
    22.8800        40
    22.9000        28
    22.9200        46
    22.9400        50
    22.9600        46
    22.9800        42
    23.0000        34
    23.0200        60
    23.0400        62
    23.0600        50
    23.0800        46
    23.1000        40
    23.1200        42
    23.1400        38
    23.1600        50
    23.1800        30
    23.2000        38
    23.2200        42
    23.2400        32
    23.2600        42
    23.2800        50
    23.3000        42
    23.3200        38
    23.3400        38
    23.3600        36
    23.3800        52
    23.4000        48
    23.4200        38
    23.4400        48
    23.4600        50
    23.4800        42
    23.5000        36
    23.5200        42
    23.5400        44
    23.5600        42
    23.5800        46
    23.6000        28
    23.6200        40
    23.6400        48
    23.6600        36
    23.6800        48
    23.7000        42
    23.7200        36
    23.7400        40
    23.7600        40
    23.7800        38
    23.8000        50
    23.8200        36
    23.8400        40
    23.8600        38
    23.8800        46
    23.9000        52
    23.9200        50
    23.9400        44
    23.9600        34
    23.9800        46
    24.0000        38
    24.0200        46
    24.0400        38
    24.0600        48
    24.0800        38
    24.1000        42
    24.1200        56
    24.1400        56
    24.1600        42
    24.1800        36
    24.2000        38
    24.2200        46
    24.2400        34
    24.2600        40
    24.2800        40
    24.3000        42
    24.3200        40
    24.3400        46
    24.3600        46
    24.3800        44
    24.4000        36
    24.4200        48
    24.4400        42
    24.4600        36
    24.4800        40
    24.5000        34
    24.5200        26
    24.5400        48
    24.5600        42
    24.5800        38
    24.6000        38
    24.6200        42
    24.6400        36
    24.6600        34
    24.6800        34
    24.7000        46
    24.7200        34
    24.7400        36
    24.7600        38
    24.7800        42
    24.8000        34
    24.8200        46
    24.8400        44
    24.8600        42
    24.8800        36
    24.9000        38
    24.9200        40
    24.9400        34
    24.9600        38
    24.9800        38
    25.0000        54
    25.0200        34
    25.0400        36
    25.0600        36
    25.0800        32
    25.1000        32
    25.1200        56
    25.1400        38
    25.1600        46
    25.1800        24
    25.2000        46
    25.2200        40
    25.2400        36
    25.2600        40
    25.2800        54
    25.3000        48
    25.3200        44
    25.3400        40
    25.3600        26
    25.3800        42
    25.4000        50
    25.4200        36
    25.4400        34
    25.4600        46
    25.4800        30
    25.5000        40
    25.5200        46
    25.5400        46
    25.5600        42
    25.5800        34
    25.6000        44
    25.6200        40
    25.6400        40
    25.6600        40
    25.6800        42
    25.7000        36
    25.7200        36
    25.7400        40
    25.7600        44
    25.7800        36
    25.8000        34
    25.8200        32
    25.8400        32
    25.8600        32
    25.8800        42
    25.9000        32
    25.9200        42
    25.9400        38
    25.9600        40
    25.9800        52
    26.0000        32
    26.0200        42
    26.0400        54
    26.0600        34
    26.0800        48
    26.1000        54
    26.1200        36
    26.1400        44
    26.1600        60
    26.1800        46
    26.2000        54
    26.2200        52
    26.2400        46
    26.2600        62
    26.2800        40
    26.3000        56
    26.3200        66
    26.3400        76
    26.3600        62
    26.3800        76
    26.4000        84
    26.4200       122
    26.4400       126
    26.4600       150
    26.4800       172
    26.5000       216
    26.5200       228
    26.5400       218
    26.5600       238
    26.5800       218
    26.6000       174
    26.6200       142
    26.6400       136
    26.6600       102
    26.6800        84
    26.7000        56
    26.7200        66
    26.7400        58
    26.7600        50
    26.7800        44
    26.8000        42
    26.8200        48
    26.8400        46
    26.8600        42
    26.8800        48
    26.9000        46
    26.9200        70
    26.9400        56
    26.9600        52
    26.9800        46
    27.0000        74
    27.0200        64
    27.0400        72
    27.0600        74
    27.0800        72
    27.1000        76
    27.1200        80
    27.1400        94
    27.1600        98
    27.1800        88
    27.2000       114
    27.2200       108
    27.2400       132
    27.2600       132
    27.2800       190
    27.3000       224
    27.3200       340
    27.3400       444
    27.3600       504
    27.3800       572
    27.4000       632
    27.4200       682
    27.4400       640
    27.4600       522
    27.4800       422
    27.5000       378
    27.5200       240
    27.5400       190
    27.5600       112
    27.5800        82
    27.6000        76
    27.6200        70
    27.6400        58
    27.6600        52
    27.6800        50
    27.7000        46
    27.7200        46
    27.7400        48
    27.7600        54
    27.7800        44
    27.8000        42
    27.8200        44
    27.8400        44
    27.8600        52
    27.8800        34
    27.9000        42
    27.9200        38
    27.9400        48
    27.9600        48
    27.9800        52
    28.0000        32
    28.0200        42
    28.0400        44
    28.0600        44
    28.0800        40
    28.1000        44
    28.1200        52
    28.1400        40
    28.1600        42
    28.1800        62
    28.2000        64
    28.2200        64
    28.2400        54
    28.2600        70
    28.2800        88
    28.3000        84
    28.3200        96
    28.3400        70
    28.3600        90
    28.3800       116
    28.4000       108
    28.4200        74
    28.4400        72
    28.4600        68
    28.4800        66
    28.5000        64
    28.5200        54
    28.5400        60
    28.5600        42
    28.5800        46
    28.6000        50
    28.6200        36
    28.6400        50
    28.6600        52
    28.6800        44
    28.7000        40
    28.7200        46
    28.7400        40
    28.7600        40
    28.7800        38
    28.8000        48
    28.8200        38
    28.8400        58
    28.8600        38
    28.8800        52
    28.9000        54
    28.9200        52
    28.9400        40
    28.9600        46
    28.9800        50
    29.0000        52
    29.0200        60
    29.0400        54
    29.0600        52
    29.0800        54
    29.1000        64
    29.1200        52
    29.1400        44
    29.1600        62
    29.1800        64
    29.2000        74
    29.2200        92
    29.2400       108
    29.2600       108
    29.2800       118
    29.3000       114
    29.3200       116
    29.3400       120
    29.3600       138
    29.3800       166
    29.4000       140
    29.4200       152
    29.4400       178
    29.4600       148
    29.4800       150
    29.5000       170
    29.5200       182
    29.5400       216
    29.5600       252
    29.5800       286
    29.6000       372
    29.6200       410
    29.6400       464
    29.6600       584
    29.6800       716
    29.7000       864
    29.7200       948
    29.7400       944
    29.7600       868
    29.7800       768
    29.8000       604
    29.8200       514
    29.8400       418
    29.8600       308
    29.8800       258
    29.9000       280
    29.9200       272
    29.9400       304
    29.9600       350
    29.9800       426
    30.0000       504
    30.0200       602
    30.0400       620
    30.0600       768
    30.0800       826
    30.1000       760
    30.1200       720
    30.1400       662
    30.1600       538
    30.1800       422
    30.2000       362
    30.2200       228
    30.2400       164
    30.2600       130
    30.2800       110
    30.3000        82
    30.3200        80
    30.3400        60
    30.3600        80
    30.3800        76
    30.4000        66
    30.4200        58
    30.4400        74
    30.4600        64
    30.4800        64
    30.5000        72
    30.5200        84
    30.5400        90
    30.5600        92
    30.5800        84
    30.6000       104
    30.6200       112
    30.6400       116
    30.6600       148
    30.6800       174
    30.7000       218
    30.7200       252
    30.7400       262
    30.7600       282
    30.7800       238
    30.8000       194
    30.8200       192
    30.8400       174
    30.8600       114
    30.8800        88
    30.9000        98
    30.9200        62
    30.9400        60
    30.9600        54
    30.9800        38
    31.0000        48
    31.0200        48
    31.0400        36
    31.0600        52
    31.0800        34
    31.1000        38
    31.1200        40
    31.1400        44
    31.1600        40
    31.1800        42
    31.2000        30
    31.2200        48
    31.2400        30
    31.2600        30
    31.2800        28
    31.3000        46
    31.3200        64
    31.3400        28
    31.3600        42
    31.3800        50
    31.4000        40
    31.4200        32
    31.4400        44
    31.4600        42
    31.4800        48
    31.5000        38
    31.5200        40
    31.5400        30
    31.5600        32
    31.5800        38
    31.6000        48
    31.6200        26
    31.6400        26
    31.6600        48
    31.6800        34
    31.7000        50
    31.7200        34
    31.7400        28
    31.7600        48
    31.7800        34
    31.8000        36
    31.8200        38
    31.8400        40
    31.8600        32
    31.8800        40
    31.9000        38
    31.9200        16
    31.9400        28
    31.9600        36
    31.9800        28
    32.0000        26
    32.0200        32
    32.0400        34
    32.0600        26
    32.0800        32
    32.1000        30
    32.1200        26
    32.1400        24
    32.1600        24
    32.1800        26
    32.2000        40
    32.2200        28
    32.2400        26
    32.2600        42
    32.2800        36
    32.3000        34
    32.3200        22
    32.3400        28
    32.3600        22
    32.3800        34
    32.4000        36
    32.4200        34
    32.4400        40
    32.4600        26
    32.4800        26
    32.5000        38
    32.5200        38
    32.5400        36
    32.5600        32
    32.5800        36
    32.6000        32
    32.6200        30
    32.6400        42
    32.6600        46
    32.6800        32
    32.7000        36
    32.7200        32
    32.7400        38
    32.7600        38
    32.7800        48
    32.8000        46
    32.8200        46
    32.8400        48
    32.8600        48
    32.8800        34
    32.9000        56
    32.9200        34
    32.9400        66
    32.9600        42
    32.9800        52
    33.0000        46
    33.0200        58
    33.0400        50
    33.0600        62
    33.0800        58
    33.1000        52
    33.1200        60
    33.1400        52
    33.1600        48
    33.1800        42
    33.2000        40
    33.2200        50
    33.2400        42
    33.2600        52
    33.2800        22
    33.3000        28
    33.3200        28
    33.3400        28
    33.3600        34
    33.3800        30
    33.4000        40
    33.4200        26
    33.4400        24
    33.4600        32
    33.4800        36
    33.5000        24
    33.5200        30
    33.5400        26
    33.5600        28
    33.5800        26
    33.6000        26
    33.6200        44
    33.6400        40
    33.6600        34
    33.6800        28
    33.7000        32
    33.7200        26
    33.7400        26
    33.7600        40
    33.7800        34
    33.8000        38
    33.8200        36
    33.8400        32
    33.8600        32
    33.8800        34
    33.9000        36
    33.9200        28
    33.9400        34
    33.9600        28
    33.9800        26
    34.0000        38
    34.0200        24
    34.0400        32
    34.0600        30
    34.0800        42
    34.1000        36
    34.1200        28
    34.1400        32
    34.1600        48
    34.1800        34
    34.2000        40
    34.2200        42
    34.2400        34
    34.2600        36
    34.2800        42
    34.3000        32
    34.3200        62
    34.3400        44
    34.3600        42
    34.3800        52
    34.4000        52
    34.4200        46
    34.4400        48
    34.4600        48
    34.4800        62
    34.5000        46
    34.5200        44
    34.5400        50
    34.5600        52
    34.5800        58
    34.6000        84
    34.6200        66
    34.6400        90
    34.6600       102
    34.6800       124
    34.7000       158
    34.7200       168
    34.7400       200
    34.7600       238
    34.7800       276
    34.8000       242
    34.8200       262
    34.8400       242
    34.8600       186
    34.8800       204
    34.9000       160
    34.9200       142
    34.9400        94
    34.9600        94
    34.9800        94
    35.0000        80
    35.0200        66
    35.0400        90
    35.0600        84
    35.0800        80
    35.1000        94
    35.1200       110
    35.1400        82
    35.1600       106
    35.1800       116
    35.2000       152
    35.2200       158
    35.2400       206
    35.2600       188
    35.2800       248
    35.3000       250
    35.3200       332
    35.3400       358
    35.3600       378
    35.3800       386
    35.4000       372
    35.4200       390
    35.4400       402
    35.4600       396
    35.4800       330
    35.5000       296
    35.5200       260
    35.5400       250
    35.5600       172
    35.5800       168
    35.6000       134
    35.6200       116
    35.6400       102
    35.6600        66
    35.6800        74
    35.7000        68
    35.7200        54
    35.7400        44
    35.7600        50
    35.7800        38
    35.8000        40
    35.8200        56
    35.8400        54
    35.8600        36
    35.8800        38
    35.9000        40
    35.9200        44
    35.9400        54
    35.9600        56
    35.9800        40
    36.0000        42
    36.0200        46
    36.0400        40
    36.0600        38
    36.0800        38
    36.1000        40
    36.1200        40
    36.1400        50
    36.1600        34
    36.1800        34
    36.2000        32
    36.2200        36
    36.2400        46
    36.2600        22
    36.2800        34
    36.3000        46
    36.3200        38
    36.3400        38
    36.3600        34
    36.3800        44
    36.4000        26
    36.4200        42
    36.4400        34
    36.4600        46
    36.4800        54
    36.5000        52
    36.5200        34
    36.5400        32
    36.5600        40
    36.5800        26
    36.6000        56
    36.6200        32
    36.6400        32
    36.6600        36
    36.6800        40
    36.7000        38
    36.7200        34
    36.7400        26
    36.7600        34
    36.7800        28
    36.8000        32
    36.8200        28
    36.8400        24
    36.8600        32
    36.8800        38
    36.9000        36
    36.9200        38
    36.9400        32
    36.9600        40
    36.9800        22
    37.0000        22
    37.0200        34
    37.0400        32
    37.0600        22
    37.0800        40
    37.1000        34
    37.1200        10
    37.1400        24
    37.1600        32
    37.1800        38
    37.2000        18
    37.2200        28
    37.2400        26
    37.2600        36
    37.2800        32
    37.3000        34
    37.3200        32
    37.3400        32
    37.3600        22
    37.3800        36
    37.4000        24
    37.4200        24
    37.4400        36
    37.4600        36
    37.4800        32
    37.5000        32
    37.5200        40
    37.5400        42
    37.5600        36
    37.5800        28
    37.6000        36
    37.6200        34
    37.6400        26
    37.6600        38
    37.6800        32
    37.7000        34
    37.7200        32
    37.7400        32
    37.7600        32
    37.7800        28
    37.8000        34
    37.8200        24
    37.8400        30
    37.8600        28
    37.8800        26
    37.9000        40
    37.9200        36
    37.9400        28
    37.9600        36
    37.9800        46
    38.0000        38
    38.0200        42
    38.0400        42
    38.0600        58
    38.0800        48
    38.1000        54
    38.1200        64
    38.1400        60
    38.1600        86
    38.1800        84
    38.2000        72
    38.2200        82
    38.2400        66
    38.2600        52
    38.2800        50
    38.3000        48
    38.3200        66
    38.3400        58
    38.3600        32
    38.3800        34
    38.4000        40
    38.4200        38
    38.4400        24
    38.4600        28
    38.4800        38
    38.5000        32
    38.5200        36
    38.5400        36
    38.5600        32
    38.5800        28
    38.6000        34
    38.6200        32
    38.6400        44
    38.6600        46
    38.6800        46
    38.7000        56
    38.7200        58
    38.7400        64
    38.7600        74
    38.7800        88
    38.8000       106
    38.8200        86
    38.8400        92
    38.8600       106
    38.8800       102
    38.9000       100
    38.9200        76
    38.9400        80
    38.9600        86
    38.9800        60
    39.0000        64
    39.0200        66
    39.0400        36
    39.0600        32
    39.0800        40
    39.1000        38
    39.1200        30
    39.1400        32
    39.1600        50
    39.1800        34
    39.2000        32
    39.2200        40
    39.2400        38
    39.2600        36
    39.2800        32
    39.3000        36
    39.3200        38
    39.3400        48
    39.3600        48
    39.3800        54
    39.4000        56
    39.4200        42
    39.4400        54
    39.4600        40
    39.4800        32
    39.5000        42
    39.5200        38
    39.5400        32
    39.5600        34
    39.5800        34
    39.6000        36
    39.6200        36
    39.6400        24
    39.6600        32
    39.6800        30
    39.7000        26
    39.7200        32
    39.7400        30
    39.7600        28
    39.7800        24
    39.8000        36
    39.8200        38
    39.8400        36
    39.8600        24
    39.8800        34
    39.9000        44
    39.9200        28
    39.9400        22
    39.9600        30
    39.9800        24
    40.0000        26
    40.0200        40
    40.0400        36
    40.0600        52
    40.0800        32
    40.1000        48
    40.1200        28
    40.1400        42
    40.1600        40
    40.1800        52
    40.2000        46
    40.2200        54
    40.2400        40
    40.2600        50
    40.2800        42
    40.3000        44
    40.3200        42
    40.3400        46
    40.3600        60
    40.3800        56
    40.4000        66
    40.4200        76
    40.4400        70
    40.4600        80
    40.4800        86
    40.5000        88
    40.5200        62
    40.5400        64
    40.5600        58
    40.5800        52
    40.6000        68
    40.6200        56
    40.6400        44
    40.6600        54
    40.6800        38
    40.7000        64
    40.7200        52
    40.7400        40
    40.7600        56
    40.7800        74
    40.8000       102
    40.8200        82
    40.8400        50
    40.8600        54
    40.8800        56
    40.9000        72
    40.9200        58
    40.9400        58
    40.9600        34
    40.9800        24
    41.0000        24
    41.0200        30
    41.0400        38
    41.0600        38
    41.0800        40
    41.1000        28
    41.1200        32
    41.1400        32
    41.1600        36
    41.1800        44
    41.2000        44
    41.2200        34
    41.2400        26
    41.2600        44
    41.2800        48
    41.3000        28
    41.3200        42
    41.3400        44
    41.3600        52
    41.3800        50
    41.4000        58
    41.4200        40
    41.4400        60
    41.4600        50
    41.4800        68
    41.5000        70
    41.5200        70
    41.5400       102
    41.5600       120
    41.5800       116
    41.6000       134
    41.6200       182
    41.6400       268
    41.6600       308
    41.6800       260
    41.7000       264
    41.7200       254
    41.7400       222
    41.7600       224
    41.7800       168
    41.8000       148
    41.8200       128
    41.8400       108
    41.8600        96
    41.8800        62
    41.9000        80
    41.9200        62
    41.9400        54
    41.9600        74
    41.9800        68
    42.0000        62
    42.0200        78
    42.0400       124
    42.0600       120
    42.0800       146
    42.1000       202
    42.1200       240
    42.1400       268
    42.1600       294
    42.1800       318
    42.2000       294
    42.2200       262
    42.2400       210
    42.2600       196
    42.2800       212
    42.3000       200
    42.3200       166
    42.3400       132
    42.3600       114
    42.3800        88
    42.4000        98
    42.4200        74
    42.4400        56
    42.4600        54
    42.4800        80
    42.5000        70
    42.5200        64
    42.5400        68
    42.5600        64
    42.5800        70
    42.6000        88
    42.6200       132
    42.6400       132
    42.6600       152
    42.6800       140
    42.7000       158
    42.7200       154
    42.7400       142
    42.7600       114
    42.7800       114
    42.8000       104
    42.8200       116
    42.8400        92
    42.8600        64
    42.8800        60
    42.9000        64
    42.9200        50
    42.9400        40
    42.9600        42
    42.9800        42
    43.0000        38
    43.0200        34
    43.0400        40
    43.0600        40
    43.0800        34
    43.1000        52
    43.1200        40
    43.1400        44
    43.1600        44
    43.1800        46
    43.2000        48
    43.2200        38
    43.2400        62
    43.2600        48
    43.2800        46
    43.3000        68
    43.3200        52
    43.3400        48
    43.3600        44
    43.3800        56
    43.4000        48
    43.4200        42
    43.4400        40
    43.4600        36
    43.4800        34
    43.5000        42
    43.5200        46
    43.5400        42
    43.5600        32
    43.5800        34
    43.6000        32
    43.6200        38
    43.6400        50
    43.6600        24
    43.6800        30
    43.7000        40
    43.7200        22
    43.7400        32
    43.7600        32
    43.7800        28
    43.8000        44
    43.8200        32
    43.8400        30
    43.8600        42
    43.8800        30
    43.9000        38
    43.9200        30
    43.9400        42
    43.9600        36
    43.9800        48
    44.0000        46
    44.0200        56
    44.0400        60
    44.0600        66
    44.0800        88
    44.1000       106
    44.1200       112
    44.1400       150
    44.1600       130
    44.1800       102
    44.2000       120
    44.2200        86
    44.2400       108
    44.2600        68
    44.2800        82
    44.3000        62
    44.3200        52
    44.3400        46
    44.3600        46
    44.3800        46
    44.4000        34
    44.4200        36
    44.4400        40
    44.4600        48
    44.4800        26
    44.5000        32
    44.5200        44
    44.5400        46
    44.5600        30
    44.5800        48
    44.6000        42
    44.6200        56
    44.6400        40
    44.6600        44
    44.6800        64
    44.7000        62
    44.7200        88
    44.7400        86
    44.7600       102
    44.7800       102
    44.8000       112
    44.8200       154
    44.8400       130
    44.8600       126
    44.8800       114
    44.9000        90
    44.9200        80
    44.9400        92
    44.9600        90
    44.9800        88
    45.0000        66
    45.0200        52
    45.0400        66
    45.0600        42
    45.0800        58
    45.1000        32
    45.1200        38
    45.1400        32
    45.1600        52
    45.1800        36
    45.2000        40
    45.2200        28
    45.2400        26
    45.2600        28
    45.2800        18
    45.3000        36
    45.3200        34
    45.3400        24
    45.3600        36
    45.3800        28
    45.4000        48
    45.4200        28
    45.4400        36
    45.4600        22
    45.4800        24
    45.5000        26
    45.5200        30
    45.5400        30
    45.5600        28
    45.5800        24
    45.6000        26
    45.6200        44
    45.6400        34
    45.6600        30
    45.6800        38
    45.7000        44
    45.7200        38
    45.7400        42
    45.7600        30
    45.7800        42
    45.8000        46
    45.8200        44
    45.8400        42
    45.8600        56
    45.8800        46
    45.9000        54
    45.9200        36
    45.9400        52
    45.9600        44
    45.9800        42
    46.0000        54
    46.0200        48
    46.0400        32
    46.0600        46
    46.0800        28
    46.1000        36
    46.1200        36
    46.1400        26
    46.1600        36
    46.1800        38
    46.2000        48
    46.2200        50
    46.2400        46
    46.2600        34
    46.2800        40
    46.3000        42
    46.3200        30
    46.3400        38
    46.3600        40
    46.3800        48
    46.4000        34
    46.4200        24
    46.4400        30
    46.4600        28
    46.4800        34
    46.5000        36
    46.5200        32
    46.5400        34
    46.5600        28
    46.5800        22
    46.6000        34
    46.6200        34
    46.6400        24
    46.6600        26
    46.6800        30
    46.7000        24
    46.7200        26
    46.7400        40
    46.7600        30
    46.7800        22
    46.8000        18
    46.8200        30
    46.8400        28
    46.8600        20
    46.8800        24
    46.9000        24
    46.9200        22
    46.9400        22
    46.9600        28
    46.9800        36
    47.0000        32
    47.0200        38
    47.0400        32
    47.0600        18
    47.0800        24
    47.1000        32
    47.1200        18
    47.1400        24
    47.1600        28
    47.1800        30
    47.2000        30
    47.2200        28
    47.2400        36
    47.2600        28
    47.2800        26
    47.3000        38
    47.3200        24
    47.3400        30
    47.3600        30
    47.3800        36
    47.4000        36
    47.4200        34
    47.4400        28
    47.4600        42
    47.4800        22
    47.5000        28
    47.5200        34
    47.5400        42
    47.5600        32
    47.5800        34
    47.6000        40
    47.6200        36
    47.6400        46
    47.6600        42
    47.6800        48
    47.7000        44
    47.7200        48
    47.7400        40
    47.7600        40
    47.7800        30
    47.8000        48
    47.8200        30
    47.8400        28
    47.8600        38
    47.8800        28
    47.9000        28
    47.9200        40
    47.9400        22
    47.9600        38
    47.9800        32
    48.0000        28
    48.0200        38
    48.0400        32
    48.0600        34
    48.0800        34
    48.1000        28
    48.1200        22
    48.1400        30
    48.1600        22
    48.1800        34
    48.2000        30
    48.2200        28
    48.2400        26
    48.2600        30
    48.2800        28
    48.3000        34
    48.3200        36
    48.3400        32
    48.3600        38
    48.3800        38
    48.4000        42
    48.4200        32
    48.4400        36
    48.4600        26
    48.4800        50
    48.5000        48
    48.5200        50
    48.5400        38
    48.5600        38
    48.5800        48
    48.6000        50
    48.6200        74
    48.6400        64
    48.6600        86
    48.6800        76
    48.7000        60
    48.7200        78
    48.7400        50
    48.7600        50
    48.7800        62
    48.8000        62
    48.8200        60
    48.8400        40
    48.8600        38
    48.8800        30
    48.9000        38
    48.9200        44
    48.9400        34
    48.9600        36
    48.9800        46
    49.0000        30
    49.0200        26
    49.0400        38
    49.0600        28
    49.0800        34
    49.1000        38
    49.1200        36
    49.1400        26
    49.1600        42
    49.1800        52
    49.2000        48
    49.2200        50
    49.2400        44
    49.2600        64
    49.2800        64
    49.3000       100
    49.3200       104
    49.3400       108
    49.3600       134
    49.3800       138
    49.4000       102
    49.4200        92
    49.4400       112
    49.4600        84
    49.4800       112
    49.5000        90
    49.5200        80
    49.5400        66
    49.5600        68
    49.5800        42
    49.6000        50
    49.6200        52
    49.6400        40
    49.6600        38
    49.6800        34
    49.7000        28
    49.7200        34
    49.7400        40
    49.7600        40
    49.7800        34
    49.8000        36
    49.8200        40
    49.8400        16
    49.8600        42
    49.8800        34
    49.9000        38
    49.9200        36
    49.9400        40
    49.9600        48
    49.9800        38
    50.0000        54
    50.0200        48
    50.0400        58
    50.0600        56
    50.0800        58
    50.1000        48
    50.1200        52
    50.1400        44
    50.1600        48
    50.1800        40
    50.2000        36
    50.2200        40
    50.2400        42
    50.2600        36
    50.2800        24
    50.3000        32
    50.3200        38
    50.3400        38
    50.3600        24
    50.3800        46
    50.4000        42
    50.4200        30
    50.4400        32
    50.4600        38
    50.4800        34
    50.5000        28
    50.5200        34
    50.5400        46
    50.5600        42
    50.5800        44
    50.6000        48
    50.6200        28
    50.6400        20
    50.6600        20
    50.6800        30
    50.7000        38
    50.7200        34
    50.7400        30
    50.7600        26
    50.7800        40
    50.8000        24
    50.8200        26
    50.8400        30
    50.8600        22
    50.8800        34
    50.9000        34
    50.9200        36
    50.9400        34
    50.9600        28
    50.9800        34
    51.0000        28
    51.0200        32
    51.0400        34
    51.0600        30
    51.0800        36
    51.1000        40
    51.1200        42
    51.1400        56
    51.1600        42
    51.1800        38
    51.2000        46
    51.2200        26
    51.2400        42
    51.2600        42
    51.2800        42
    51.3000        52
    51.3200        16
    51.3400        30
    51.3600        28
    51.3800        30
    51.4000        30
    51.4200        44
    51.4400        36
    51.4600        26
    51.4800        32
    51.5000        36
    51.5200        30
    51.5400        36
    51.5600        42
    51.5800        26
    51.6000        36
    51.6200        42
    51.6400        48
    51.6600        44
    51.6800        50
    51.7000        56
    51.7200        48
    51.7400        98
    51.7600        74
    51.7800        84
    51.8000       132
    51.8200       192
    51.8400       240
    51.8600       306
    51.8800       326
    51.9000       384
    51.9200       410
    51.9400       346
    51.9600       324
    51.9800       250
    52.0000       222
    52.0200       214
    52.0400       230
    52.0600       198
    52.0800       170
    52.1000       138
    52.1200        96
    52.1400        86
    52.1600        50
    52.1800        40
    52.2000        50
    52.2200        42
    52.2400        34
    52.2600        36
    52.2800        38
    52.3000        40
    52.3200        30
    52.3400        26
    52.3600        28
    52.3800        30
    52.4000        28
    52.4200        36
    52.4400        34
    52.4600        40
    52.4800        30
    52.5000        32
    52.5200        22
    52.5400        34
    52.5600        20
    52.5800        34
    52.6000        36
    52.6200        28
    52.6400        18
    52.6600        34
    52.6800        26
    52.7000        24
    52.7200        32
    52.7400        24
    52.7600        34
    52.7800        26
    52.8000        26
    52.8200        28
    52.8400        30
    52.8600        28
    52.8800        30
    52.9000        28
    52.9200        24
    52.9400        28
    52.9600        24
    52.9800        20
    53.0000        34
    53.0200        38
    53.0400        32
    53.0600        40
    53.0800        28
    53.1000        34
    53.1200        52
    53.1400        32
    53.1600        32
    53.1800        40
    53.2000        44
    53.2200        28
    53.2400        30
    53.2600        20
    53.2800        40
    53.3000        34
    53.3200        28
    53.3400        36
    53.3600        22
    53.3800        26
    53.4000        34
    53.4200        20
    53.4400        28
    53.4600        22
    53.4800        26
    53.5000        30
    53.5200        30
    53.5400        30
    53.5600        30
    53.5800        28
    53.6000        38
    53.6200        32
    53.6400        24
    53.6600        28
    53.6800        30
    53.7000        32
    53.7200        26
    53.7400        28
    53.7600        32
    53.7800        26
    53.8000        32
    53.8200        32
    53.8400        34
    53.8600        30
    53.8800        46
    53.9000        40
    53.9200        34
    53.9400        32
    53.9600        54
    53.9800        52
    54.0000        30
    54.0200        32
    54.0400        22
    54.0600        26
    54.0800        36
    54.1000        34
    54.1200        30
    54.1400        32
    54.1600        36
    54.1800        44
    54.2000        42
    54.2200        52
    54.2400        36
    54.2600        30
    54.2800        48
    54.3000        40
    54.3200        40
    54.3400        32
    54.3600        34
    54.3800        36
    54.4000        28
    54.4200        36
    54.4400        30
    54.4600        34
    54.4800        44
    54.5000        22
    54.5200        44
    54.5400        50
    54.5600        48
    54.5800        60
    54.6000        56
    54.6200        84
    54.6400        62
    54.6600        56
    54.6800        50
    54.7000        56
    54.7200        56
    54.7400        48
    54.7600        62
    54.7800        46
    54.8000        50
    54.8200        48
    54.8400        46
    54.8600        38
    54.8800        40
    54.9000        44
    54.9200        46
    54.9400        42
    54.9600        36
    54.9800        42
    55.0000        46
    55.0200        34
    55.0400        36
    55.0600        36
    55.0800        40
    55.1000        44
    55.1200        30
    55.1400        26
    55.1600        36
    55.1800        60
    55.2000        30
    55.2200        48
    55.2400        44
    55.2600        44
    55.2800        60
    55.3000        44
    55.3200        38
    55.3400        40
    55.3600        46
    55.3800        46
    55.4000        38
    55.4200        42
    55.4400        30
    55.4600        36
    55.4800        34
    55.5000        36
    55.5200        32
    55.5400        36
    55.5600        36
    55.5800        48
    55.6000        34
    55.6200        30
    55.6400        30
    55.6600        32
    55.6800        30
    55.7000        38
    55.7200        44
    55.7400        36
    55.7600        34
    55.7800        28
    55.8000        28
    55.8200        28
    55.8400        34
    55.8600        40
    55.8800        38
    55.9000        38
    55.9200        34
    55.9400        46
    55.9600        26
    55.9800        38
    56.0000        36
    56.0200        32
    56.0400        46
    56.0600        44
    56.0800        48
    56.1000        42
    56.1200        44
    56.1400        60
    56.1600        52
    56.1800        56
    56.2000        70
    56.2200        80
    56.2400       100
    56.2600        98
    56.2800       142
    56.3000       182
    56.3200       226
    56.3400       214
    56.3600       236
    56.3800       250
    56.4000       236
    56.4200       192
    56.4400       190
    56.4600       172
    56.4800       214
    56.5000       200
    56.5200       174
    56.5400       186
    56.5600       180
    56.5800       208
    56.6000       204
    56.6200       196
    56.6400       208
    56.6600       194
    56.6800       196
    56.7000       158
    56.7200       124
    56.7400       134
    56.7600       120
    56.7800       128
    56.8000       130
    56.8200       126
    56.8400        92
    56.8600        94
    56.8800        70
    56.9000        58
    56.9200        60
    56.9400        46
    56.9600        56
    56.9800        54
    57.0000        38
    57.0200        46
    57.0400        42
    57.0600        40
    57.0800        28
    57.1000        24
    57.1200        24
    57.1400        32
    57.1600        34
    57.1800        40
    57.2000        36
    57.2200        26
    57.2400        38
    57.2600        38
    57.2800        36
    57.3000        36
    57.3200        32
    57.3400        36
    57.3600        32
    57.3800        44
    57.4000        30
    57.4200        32
    57.4400        32
    57.4600        64
    57.4800        36
    57.5000        40
    57.5200        48
    57.5400        44
    57.5600        30
    57.5800        44
    57.6000        40
    57.6200        38
    57.6400        34
    57.6600        30
    57.6800        32
    57.7000        28
    57.7200        44
    57.7400        46
    57.7600        48
    57.7800        62
    57.8000        60
    57.8200        62
    57.8400        54
    57.8600        50
    57.8800        46
    57.9000        50
    57.9200        56
    57.9400        52
    57.9600        50
    57.9800        52
    58.0000        30
    58.0200        38
    58.0400        44
    58.0600        30
    58.0800        40
    58.1000        30
    58.1200        28
    58.1400        32
    58.1600        32
    58.1800        28
    58.2000        44
    58.2200        42
    58.2400        28
    58.2600        32
    58.2800        38
    58.3000        24
    58.3200        24
    58.3400        28
    58.3600        36
    58.3800        32
    58.4000        42
    58.4200        28
    58.4400        30
    58.4600        32
    58.4800        30
    58.5000        32
    58.5200        36
    58.5400        34
    58.5600        44
    58.5800        36
    58.6000        40
    58.6200        64
    58.6400        50
    58.6600        84
    58.6800       100
    58.7000       168
    58.7200       194
    58.7400       166
    58.7600       194
    58.7800       172
    58.8000       164
    58.8200       130
    58.8400       106
    58.8600       104
    58.8800       130
    58.9000       108
    58.9200       102
    58.9400        88
    58.9600        78
    58.9800        76
    59.0000        38
    59.0200        44
    59.0400        32
    59.0600        28
    59.0800        48
    59.1000        38
    59.1200        40
    59.1400        46
    59.1600        52
    59.1800        42
    59.2000        48
    59.2200        64
    59.2400        56
    59.2600        82
    59.2800        74
    59.3000       130
    59.3200       174
    59.3400       200
    59.3600       180
    59.3800       144
    59.4000       118
    59.4200       104
    59.4400        78
    59.4600        82
    59.4800        82
    59.5000        86
    59.5200       108
    59.5400        84
    59.5600        78
    59.5800        62
    59.6000        54
    59.6200        60
    59.6400        56
    59.6600        44
    59.6800        36
    59.7000        46
    59.7200        42
    59.7400        32
    59.7600        36
    59.7800        40
    59.8000        42
    59.8200        58
    59.8400        42
    59.8600        52
    59.8800        48
    59.9000        50
    59.9200        44
    59.9400        38
    59.9600        52
    59.9800        40
    60.0000        44
    60.0200        50
    60.0400        52
    60.0600        40
    60.0800        46
    60.1000        38
    60.1200        48
    60.1400        44
    60.1600        40
    60.1800        52
    60.2000        54
    60.2200        64
    60.2400        84
    60.2600        74
    60.2800       104
    60.3000       132
    60.3200       118
    60.3400       134
    60.3600       116
    60.3800       136
    60.4000       132
    60.4200       134
    60.4400       104
    60.4600       104
    60.4800        82
    60.5000        98
    60.5200        82
    60.5400       100
    60.5600        80
    60.5800        70
    60.6000        68
    60.6200        56
    60.6400        58
    60.6600        54
    60.6800        50
    60.7000        38
    60.7200        58
    60.7400        32
    60.7600        52
    60.7800        46
    60.8000        34
    60.8200        40
    60.8400        52
    60.8600        34
    60.8800        42
    60.9000        40
    60.9200        24
    60.9400        54
    60.9600        26
    60.9800        36
    61.0000        30
    61.0200        34
    61.0400        44
    61.0600        50
    61.0800        48
    61.1000        48
    61.1200        38
    61.1400        46
    61.1600        42
    61.1800        38
    61.2000        38
    61.2200        40
    61.2400        60
    61.2600        58
    61.2800        50
    61.3000        64
    61.3200        50
    61.3400        58
    61.3600        58
    61.3800        46
    61.4000        72
    61.4200        84
    61.4400        62
    61.4600        72
    61.4800        48
    61.5000        70
    61.5200        44
    61.5400        64
    61.5600        64
    61.5800        50
    61.6000        66
    61.6200        46
    61.6400        40
    61.6600        38
    61.6800        36
    61.7000        48
    61.7200        34
    61.7400        44
    61.7600        46
    61.7800        46
    61.8000        38
    61.8200        52
    61.8400        40
    61.8600        50
    61.8800        42
    61.9000        52
    61.9200        34
    61.9400        34
    61.9600        44
    61.9800        44
    62.0000        54
    62.0200        50
    62.0400        56
    62.0600        62
    62.0800        64
    62.1000       108
    62.1200        88
    62.1400       110
    62.1600        88
    62.1800        84
    62.2000        54
    62.2200        68
    62.2400        74
    62.2600        64
    62.2800        62
    62.3000        60
    62.3200        66
    62.3400        50
    62.3600        58
    62.3800        46
    62.4000        36
    62.4200        42
    62.4400        50
    62.4600        38
    62.4800        46
    62.5000        40
    62.5200        30
    62.5400        32
    62.5600        30
    62.5800        32
    62.6000        36
    62.6200        34
    62.6400        32
    62.6600        52
    62.6800        36
    62.7000        26
    62.7200        44
    62.7400        26
    62.7600        34
    62.7800        38
    62.8000        28
    62.8200        26
    62.8400        34
    62.8600        38
    62.8800        30
    62.9000        24
    62.9200        26
    62.9400        28
    62.9600        30
    62.9800        28
    63.0000        26
    63.0200        36
    63.0400        36
    63.0600        26
    63.0800        28
    63.1000        22
    63.1200        24
    63.1400        34
    63.1600        26
    63.1800        34
    63.2000        40
    63.2200        32
    63.2400        38
    63.2600        42
    63.2800        38
    63.3000        34
    63.3200        42
    63.3400        30
    63.3600        34
    63.3800        34
    63.4000        30
    63.4200        20
    63.4400        32
    63.4600        30
    63.4800        40
    63.5000        34
    63.5200        36
    63.5400        24
    63.5600        32
    63.5800        30
    63.6000        20
    63.6200        22
    63.6400        34
    63.6600        34
    63.6800        32
    63.7000        20
    63.7200        18
    63.7400        38
    63.7600        28
    63.7800        34
    63.8000        26
    63.8200        24
    63.8400        26
    63.8600        34
    63.8800        30
    63.9000        34
    63.9200        36
    63.9400        36
    63.9600        26
    63.9800        36
    64.0000        44
    64.0200        24
    64.0400        36
    64.0600        52
    64.0800        46
    64.1000        42
    64.1200        54
    64.1400        52
    64.1600        48
    64.1800        50
    64.2000        48
    64.2200        40
    64.2400        60
    64.2600        40
    64.2800        50
    64.3000        32
    64.3200        38
    64.3400        42
    64.3600        42
    64.3800        50
    64.4000        40
    64.4200        44
    64.4400        48
    64.4600        28
    64.4800        44
    64.5000        44
    64.5200        30
    64.5400        30
    64.5600        42
    64.5800        50
    64.6000        42
    64.6200        32
    64.6400        30
    64.6600        38
    64.6800        36
    64.7000        34
    64.7200        42
    64.7400        32
    64.7600        34
    64.7800        36
    64.8000        38
    64.8200        38
    64.8400        28
    64.8600        34
    64.8800        42
    64.9000        38
    64.9200        60
    64.9400        42
    64.9600        48
    64.9800        56
    65.0000        56
