0.00500
0.00501
0.00502
0.00503
0.00504
0.00505
0.00506
0.00507
0.00508
0.00509
0.00510
0.00511
0.00512
0.00512
0.00513
0.00514
0.00515
0.00516
0.00517
0.00518
0.00519
0.00520
0.00521
0.00522
0.00523
0.00524
0.00525
0.00526
0.00527
0.00528
0.00529
0.00530
0.00531
0.00532
0.00533
0.00534
0.00535
0.00537
0.00538
0.00539
0.00540
0.00541
0.00542
0.00543
0.00544
0.00545
0.00546
0.00547
0.00548
0.00549
0.00550
0.00551
0.00552
0.00553
0.00555
0.00556
0.00557
0.00558
0.00559
0.00560
0.00561
0.00562
0.00563
0.00564
0.00566
0.00567
0.00568
0.00569
0.00570
0.00571
0.00572
0.00574
0.00575
0.00576
0.00577
0.00578
0.00579
0.00580
0.00582
0.00583
0.00584
0.00585
0.00586
0.00588
0.00589
0.00590
0.00591
0.00592
0.00593
0.00595
0.00596
0.00597
0.00598
0.00600
0.00601
0.00602
0.00603
0.00604
0.00606
0.00607
0.00608
0.00609
0.00611
0.00612
0.00613
0.00615
0.00616
0.00617
0.00618
0.00620
0.00621
0.00622
0.00624
0.00625
0.00626
0.00627
0.00629
0.00630
0.00631
0.00633
0.00634
0.00635
0.00637
0.00638
0.00639
0.00641
0.00642
0.00643
0.00645
0.00646
0.00648
0.00649
0.00650
0.00652
0.00653
0.00654
0.00656
0.00657
0.00659
0.00660
0.00662
0.00663
0.00664
0.00666
0.00667
0.00669
0.00670
0.00672
0.00673
0.00674
0.00676
0.00677
0.00679
0.00680
0.00682
0.00683
0.00685
0.00686
0.00688
0.00689
0.00691
0.00692
0.00694
0.00695
0.00697
0.00698
0.00700
0.00701
0.00703
0.00705
0.00706
0.00708
0.00709
0.00711
0.00712
0.00714
0.00716
0.00717
0.00719
0.00720
0.00722
0.00724
0.00725
0.00727
0.00729
0.00730
0.00732
0.00734
0.00735
0.00737
0.00739
0.00740
0.00742
0.00744
0.00745
0.00747
0.00749
0.00750
0.00752
0.00754
0.00756
0.00757
0.00759
0.00761
0.00763
0.00764
0.00766
0.00768
0.00770
0.00771
0.00773
0.00775
0.00777
0.00779
0.00780
0.00782
0.00784
0.00786
0.00788
0.00790
0.00791
0.00793
0.00795
0.00797
0.00799
0.00801
0.00803
0.00805
0.00806
0.00808
0.00810
0.00812
0.00814
0.00816
0.00818
0.00820
0.00822
0.00824
0.00826
0.00828
0.00830
0.00832
0.00834
0.00836
0.00838
0.00840
0.00842
0.00844
0.00846
0.00848
0.00850
0.00852
0.00854
0.00856
0.00858
0.00861
0.00863
0.00865
0.00867
0.00869
0.00871
0.00873
0.00875
0.00878
0.00880
0.00882
0.00884
0.00886
0.00889
0.00891
0.00893
0.00895
0.00898
0.00900
0.00902
0.00904
0.00907
0.00909
0.00911
0.00913
0.00916
0.00918
0.00920
0.00923
0.00925
0.00927
0.00930
0.00932
0.00934
0.00937
0.00939
0.00942
0.00944
0.00946
0.00949
0.00951
0.00954
0.00956
0.00959
0.00961
0.00964
0.00966
0.00969
0.00971
0.00974
0.00976
0.00979
0.00981
0.00984
0.00987
0.00989
0.00992
0.00994
0.00997
0.01000
0.01002
0.01005
0.01008
0.01010
0.01013
0.01016
0.01018
0.01021
0.01024
0.01026
0.01029
0.01032
0.01035
0.01037
0.01040
0.01043
0.01046
0.01049
0.01052
0.01054
0.01057
0.01060
0.01063
0.01066
0.01069
0.01072
0.01075
0.01078
0.01081
0.01084
0.01086
0.01090
0.01093
0.01096
0.01099
0.01102
0.01105
0.01108
0.01111
0.01114
0.01117
0.01120
0.01123
0.01126
0.01130
0.01133
0.01136
0.01139
0.01142
0.01146
0.01149
0.01152
0.01155
0.01159
0.01162
0.01165
0.01168
0.01172
0.01175
0.01179
0.01182
0.01185
0.01189
0.01192
0.01196
0.01199
0.01202
0.01206
0.01209
0.01213
0.01217
0.01220
0.01224
0.01227
0.01231
0.01234
0.01238
0.01242
0.01245
0.01249
0.01253
0.01256
0.01260
0.01264
0.01268
0.01271
0.01275
0.01279
0.01283
0.01287
0.01290
0.01294
0.01298
0.01302
0.01306
0.01310
0.01314
0.01318
0.01322
0.01326
0.01330
0.01334
0.01338
0.01342
0.01346
0.01350
0.01355
0.01359
0.01363
0.01367
0.01371
0.01376
0.01380
0.01384
0.01388
0.01393
0.01397
0.01401
0.01406
0.01410
0.01415
0.01419
0.01424
0.01428
0.01433
0.01437
0.01442
0.01446
0.01451
0.01455
0.01460
0.01465
0.01469
0.01474
0.01479
0.01484
0.01488
0.01493
0.01498
0.01503
0.01508
0.01513
0.01518
0.01522
0.01527
0.01532
0.01537
0.01542
0.01548
0.01553
0.01558
0.01563
0.01568
0.01573
0.01578
0.01584
0.01589
0.01594
0.01600
0.01605
0.01610
0.01616
0.01621
0.01627
0.01632
0.01638
0.01643
0.01649
0.01654
0.01660
0.01665
0.01671
0.01677
0.01683
0.01688
0.01694
0.01700
0.01706
0.01712
0.01718
0.01724
0.01730
0.01736
0.01742
0.01748
0.01754
0.01760
0.01766
0.01772
0.01779
0.01785
0.01791
0.01797
0.01804
0.01810
0.01817
0.01823
0.01830
0.01836
0.01843
0.01849
0.01856
0.01863
0.01869
0.01876
0.01883
0.01890
0.01897
0.01904
0.01911
0.01917
0.01925
0.01932
0.01939
0.01946
0.01953
0.01960
0.01967
0.01975
0.01982
0.01989
0.01997
0.02004
0.02012
0.02019
0.02027
0.02035
0.02042
0.02050
0.02058
0.02066
0.02073
0.02081
0.02089
0.02097
0.02105
0.02113
0.02121
0.02130
0.02138
0.02146
0.02154
0.02163
0.02171
0.02180
0.02188
0.02197
0.02205
0.02214
0.02223
0.02231
0.02240
0.02249
0.02258
0.02267
0.02276
0.02285
0.02294
0.02303
0.02313
0.02322
0.02331
0.02341
0.02350
0.02360
0.02369
0.02379
0.02389
0.02398
0.02408
0.02418
0.02428
0.02438
0.02448
0.02458
0.02468
0.02479
0.02489
0.02499
0.02510
0.02520
0.02531
0.02541
0.02552
0.02563
0.02574
0.02585
0.02596
0.02607
0.02618
0.02629
0.02640
0.02652
0.02663
0.02675
0.02686
0.02698
0.02710
0.02721
0.02733
0.02745
0.02757
0.02769
0.02781
0.02794
0.02806
0.02818
0.02831
0.02844
0.02856
0.02869
0.02882
0.02895
0.02908
0.02921
0.02934
0.02947
0.02961
0.02974
0.02988
0.03002
0.03015
0.03029
0.03043
0.03057
0.03071
0.03086
0.03100
0.03114
0.03129
0.03143
0.03158
0.03173
0.03188
0.03203
0.03218
0.03233
0.03249
0.03264
0.03280
0.03296
0.03311
0.03327
0.03343
0.03360
0.03376
0.03392
0.03409
0.03426
0.03442
0.03459
0.03476
0.03493
0.03511
0.03528
0.03546
0.03563
0.03581
0.03599
0.03617
0.03635
0.03654
0.03672
0.03691
0.03709
0.03728
0.03747
0.03767
0.03786
0.03805
0.03825
0.03845
0.03865
0.03885
0.03905
0.03926
0.03946
0.03967
0.03988
0.04009
0.04030
0.04051
0.04073
0.04095
0.04117
0.04139
0.04161
0.04184
0.04206
0.04229
0.04252
0.04275
0.04299
0.04322
0.04346
0.04370
0.04394
0.04419
0.04443
0.04468
0.04493
0.04518
0.04544
0.04569
0.04595
0.04621
0.04647
0.04674
0.04701
0.04728
0.04755
0.04782
0.04810
0.04838
0.04866
0.04894
0.04923
0.04952
0.04981
0.05011
0.05040
0.05070
0.05101
0.05131
0.05162
0.05193
0.05224
0.05256
0.05288
0.05320
0.05352
0.05385
0.05418
0.05452
0.05485
0.05519
0.05554
0.05588
0.05623
0.05659
0.05694
0.05730
0.05767
0.05803
0.05840
0.05878
0.05915
0.05954
0.05992
0.06031
0.06070
0.06110
0.06150
0.06190
0.06231
0.06272
0.06314
0.06356
0.06398
0.06441
0.06484
0.06528
0.06572
0.06617
0.06662
0.06708
0.06754
0.06800
0.06847
0.06894
0.06942
0.06991
0.07040
0.07089
0.07139
0.07190
0.07241
0.07293
0.07345
0.07398
0.07451
0.07505
0.07559
0.07614
0.07670
0.07726
0.07783
0.07841
0.07899
0.07958
0.08017
0.08077
0.08138
0.08200
0.08262
0.08325
0.08389
0.08453
0.08518
0.08584
0.08651
0.08718
0.08787
0.08856
0.08926
0.08996
0.09068
0.09140
0.09213
0.09288
0.09363
0.09439
0.09515
0.09593
0.09672
0.09752
0.09833
0.09914
0.09997
0.10081
0.10166
0.10252
0.10339
0.10427
0.10516
0.10607
0.10699
0.10791
0.10885
0.10981
0.11077
0.11175
0.11274
0.11375
0.11476
0.11580
0.11684
0.11790
0.11898
0.12006
0.12117
0.12229
0.12342
0.12457
0.12574
0.12692
0.12812
0.12934
0.13058
0.13183
0.13310
0.13439
0.13570
0.13702
0.13837
0.13974
0.14112
0.14253
0.14396
0.14541
0.14688
0.14838
0.14990
0.15144
0.15300
0.15459
0.15621
0.15785
0.15951
0.16121
0.16293
0.16467
0.16645
0.16825
0.17009
0.17195
0.17385
0.17577
0.17773
0.17972
0.18175
0.18381
0.18590
0.18803
0.19020
