2.50035
2.50269
2.50502
2.50736
2.50971
2.51206
2.51441
2.51677
2.51914
2.52150
2.52388
2.52625
2.52863
2.53102
2.53341
2.53580
2.53820
2.54061
2.54301
2.54543
2.54784
2.55027
2.55269
2.55512
2.55756
2.56000
2.56245
2.56489
2.56735
2.56981
2.57227
2.57474
2.57721
2.57969
2.58218
2.58466
2.58716
2.58965
2.59215
2.59466
2.59717
2.59969
2.60221
2.60474
2.60727
2.60981
2.61235
2.61489
2.61744
2.62000
2.62256
2.62513
2.62770
2.63027
2.63286
2.63544
2.63803
2.64063
2.64323
2.64584
2.64845
2.65107
2.65369
2.65632
2.65895
2.66159
2.66423
2.66688
2.66953
2.67219
2.67486
2.67753
2.68020
2.68288
2.68557
2.68826
2.69095
2.69365
2.69636
2.69907
2.70179
2.70452
2.70725
2.70998
2.71272
2.71547
2.71822
2.72097
2.72374
2.72650
2.72928
2.73206
2.73484
2.73763
2.74043
2.74323
2.74604
2.74885
2.75167
2.75450
2.75733
2.76016
2.76301
2.76586
2.76871
2.77157
2.77444
2.77731
2.78019
2.78307
2.78596
2.78886
2.79176
2.79467
2.79758
2.80050
2.80343
2.80636
2.80930
2.81224
2.81519
2.81815
2.82111
2.82408
2.82706
2.83004
2.83303
2.83603
2.83903
2.84203
2.84505
2.84807
2.85109
2.85413
2.85717
2.86021
2.86327
2.86632
2.86939
2.87246
2.87554
2.87863
2.88172
2.88482
2.88792
2.89103
2.89415
2.89728
2.90041
2.90355
2.90670
2.90985
2.91301
2.91617
2.91935
2.92253
2.92571
2.92891
2.93211
2.93532
2.93853
2.94175
2.94498
2.94822
2.95146
2.95471
2.95797
2.96124
2.96451
2.96779
2.97107
2.97437
2.97767
2.98098
2.98429
2.98762
2.99095
2.99429
2.99763
3.00098
3.00434
3.00771
3.01109
3.01447
3.01786
3.02126
3.02467
3.02808
3.03150
3.03493
3.03837
3.04181
3.04527
3.04873
3.05220
3.05567
3.05916
3.06265
3.06615
3.06966
3.07317
3.07670
3.08023
3.08377
3.08732
3.09088
3.09444
3.09801
3.10160
3.10519
3.10878
3.11239
3.11600
3.11963
3.12326
3.12690
3.13055
3.13421
3.13787
3.14155
3.14523
3.14892
3.15262
3.15633
3.16005
3.16377
3.16751
3.17125
3.17501
3.17877
3.18254
3.18632
3.19011
3.19390
3.19771
3.20153
3.20535
3.20919
3.21303
3.21688
3.22074
3.22462
3.22850
3.23239
3.23628
3.24019
3.24411
3.24804
3.25198
3.25592
3.25988
3.26384
3.26782
3.27180
3.27580
3.27980
3.28382
3.28784
3.29188
3.29592
3.29998
3.30404
3.30811
3.31220
3.31629
3.32040
3.32451
3.32864
3.33277
3.33692
3.34107
3.34524
3.34941
3.35360
3.35780
3.36200
3.36622
3.37045
3.37469
3.37894
3.38320
3.38747
3.39176
3.39605
3.40035
3.40467
3.40900
3.41333
3.41768
3.42204
3.42641
3.43079
3.43519
3.43959
3.44401
3.44843
3.45287
3.45732
3.46178
3.46625
3.47074
3.47523
3.47974
3.48426
3.48879
3.49333
3.49789
3.50245
3.50703
3.51162
3.51623
3.52084
3.52547
3.53011
3.53476
3.53942
3.54410
3.54878
3.55348
3.55820
3.56292
3.56766
3.57241
3.57717
3.58195
3.58674
3.59154
3.59635
3.60118
3.60602
3.61087
3.61574
3.62062
3.62551
3.63042
3.63534
3.64027
3.64522
3.65018
3.65515
3.66014
3.66514
3.67015
3.67518
3.68022
3.68527
3.69034
3.69543
3.70052
3.70564
3.71076
3.71590
3.72105
3.72622
3.73140
3.73660
3.74181
3.74704
3.75228
3.75754
3.76281
3.76809
3.77339
3.77870
3.78403
3.78938
3.79474
3.80011
3.80550
3.81091
3.81633
3.82177
3.82722
3.83269
3.83817
3.84367
3.84918
3.85471
3.86026
3.86582
3.87140
3.87699
3.88261
3.88823
3.89388
3.89953
3.90521
3.91090
3.91661
3.92234
3.92808
3.93384
3.93962
3.94541
3.95122
3.95705
3.96290
3.96876
3.97464
3.98053
3.98645
3.99238
3.99833
4.00430
4.01028
4.01629
4.02231
4.02835
4.03441
4.04048
4.04658
4.05269
4.05882
4.06497
4.07114
4.07732
4.08353
4.08976
4.09600
4.10226
4.10854
4.11485
4.12117
4.12751
4.13387
4.14025
4.14665
4.15307
4.15950
4.16596
4.17244
4.17894
4.18546
4.19200
4.19856
4.20514
4.21174
4.21836
4.22501
4.23167
4.23836
4.24506
4.25179
4.25854
4.26531
4.27210
4.27892
4.28575
4.29261
4.29949
4.30639
4.31331
4.32026
4.32723
4.33422
4.34123
4.34827
4.35532
4.36241
4.36951
4.37664
4.38379
4.39097
4.39816
4.40539
4.41263
4.41990
4.42720
4.43451
4.44185
4.44922
4.45661
4.46403
4.47147
4.47893
4.48642
4.49394
4.50148
4.50904
4.51663
4.52425
4.53189
4.53956
4.54725
4.55497
4.56272
4.57049
4.57829
4.58612
4.59397
4.60185
4.60976
4.61769
4.62566
4.63364
4.64166
4.64971
4.65778
4.66588
4.67401
4.68216
4.69035
4.69856
4.70681
4.71508
4.72338
4.73171
4.74007
4.74846
4.75688
4.76533
4.77381
4.78232
4.79086
4.79943
4.80803
4.81666
4.82532
4.83402
4.84274
4.85150
4.86029
4.86911
4.87796
4.88685
4.89577
4.90472
4.91370
4.92272
4.93176
4.94085
4.94996
4.95911
4.96830
4.97751
4.98677
4.99605
5.00537
5.01473
5.02412
5.03355
5.04301
5.05250
5.06204
5.07161
5.08121
5.09085
5.10053
5.11025
5.12000
5.12979
5.13962
5.14948
5.15938
5.16933
5.17931
5.18932
5.19938
5.20948
5.21961
5.22979
5.24000
5.25025
5.26055
5.27088
5.28126
5.29168
5.30213
5.31263
5.32317
5.33376
5.34438
5.35505
5.36576
5.37651
5.38731
5.39815
5.40903
5.41996
5.43093
5.44195
5.45301
5.46411
5.47527
5.48646
5.49770
5.50899
5.52033
5.53171
5.54314
5.55462
5.56614
5.57771
5.58933
5.60100
5.61272
5.62449
5.63630
5.64817
5.66008
5.67205
5.68407
5.69614
5.70826
5.72043
5.73265
5.74493
5.75725
5.76963
5.78207
5.79456
5.80710
5.81970
5.83235
5.84505
5.85782
5.87063
5.88351
5.89644
5.90943
5.92247
5.93558
5.94874
5.96196
5.97523
5.98857
6.00197
6.01543
6.02894
6.04252
6.05616
6.06986
6.08363
6.09745
6.11134
6.12530
6.13931
6.15339
6.16754
6.18175
6.19603
6.21037
6.22478
6.23926
6.25380
6.26841
6.28309
6.29784
6.31266
6.32755
6.34251
6.35754
6.37264
6.38781
6.40305
6.41837
6.43376
6.44923
6.46477
6.48039
6.49608
6.51184
6.52769
6.54361
6.55961
6.57569
6.59184
6.60808
6.62440
6.64079
6.65727
6.67383
6.69047
6.70720
6.72401
6.74090
6.75788
6.77495
6.79210
6.80934
6.82667
6.84408
6.86159
6.87918
6.89686
6.91464
6.93251
6.95047
6.96852
6.98667
7.00491
7.02325
7.04168
7.06021
7.07884
7.09757
7.11639
7.13532
7.15435
7.17348
7.19271
7.21204
7.23148
7.25103
7.27068
7.29043
7.31030
7.33027
7.35036
7.37055
7.39085
7.41127
7.43180
7.45244
7.47320
7.49408
7.51507
7.53618
7.55741
7.57876
7.60023
7.62182
7.64353
7.66537
7.68734
7.70942
7.73164
7.75399
7.77646
7.79907
7.82181
7.84468
7.86768
7.89082
7.91410
7.93751
7.96107
7.98476
8.00860
8.03257
8.05670
8.08096
8.10538
8.12994
8.15465
8.17951
8.20453
8.22969
8.25502
8.28049
8.30613
8.33193
8.35788
8.38400
8.41028
8.43673
8.46334
8.49013
8.51708
8.54420
8.57150
8.59897
8.62662
8.65445
8.68246
8.71065
8.73902
8.76758
8.79633
8.82526
8.85439
8.88371
8.91322
8.94293
8.97284
9.00295
9.03327
9.06378
9.09451
9.12544
9.15659
9.18795
9.21952
9.25131
9.28332
9.31556
9.34801
9.38070
9.41361
9.44676
9.48014
9.51376
9.54762
9.58171
9.61606
9.65065
9.68549
9.72058
9.75593
9.79153
9.82740
9.86353
9.89993
9.93659
9.97353
10.01075
10.04824
10.08601
10.12408
10.16242
10.20106
10.24000
10.27923
10.31877
10.35861
10.39876
10.43922
10.48000
10.52110
10.56252
10.60427
10.64635
10.68876
10.73152
10.77462
10.81806
10.86186
10.90602
10.95053
10.99541
11.04066
11.08628
11.13228
11.17867
11.22544
11.27260
11.32017
11.36814
11.41651
11.46530
11.51451
11.56414
11.61420
11.66469
11.71563
11.76702
11.81885
11.87115
11.92391
11.97714
12.03085
12.08504
12.13973
12.19491
12.25059
12.30679
12.36350
12.42074
12.47851
12.53682
12.59568
12.65509
12.71507
12.77562
12.83675
12.89846
12.96077
13.02369
13.08722
13.15137
13.21616
13.28158
13.34766
13.41440
13.48181
13.54990
13.61868
13.68816
13.75836
13.82928
13.90093
13.97333
14.04649
14.12042
14.19513
14.27064
14.34695
14.42409
14.50205
14.58087
14.66055
14.74110
14.82254
14.90489
14.98816
15.07236
15.15751
15.24364
15.33074
15.41885
